time,x_pos,y_pos,velocity,rotation,action
0,1.67,4.94,0,3.14159,0
0.16189,1.68955,4.93792,0.242835,3.14159,0
0.228438,1.70891,4.93574,0.342658,3.14159,0
0.279161,1.72808,4.93348,0.418741,3.14159,0
0.321641,1.74708,4.93112,0.482461,3.14159,0
0.358822,1.7659,4.92868,0.538234,3.14159,0
0.392222,1.78454,4.92616,0.588333,3.14159,0
0.42274,1.80301,4.92355,0.634111,3.14159,0
0.450968,1.82131,4.92085,0.676451,3.14159,0
0.477315,1.83944,4.91808,0.715972,3.14159,0
0.502082,1.85741,4.91522,0.753123,3.14159,0
0.525496,1.87521,4.91229,0.788244,3.14159,0
0.547734,1.89286,4.90928,0.821602,3.14159,0
0.568938,1.91035,4.9062,0.853407,3.14159,0
0.589222,1.92768,4.90304,0.883833,3.14159,0
0.608682,1.94486,4.89981,0.913022,3.14159,0
0.627396,1.96189,4.8965,0.941094,3.14159,0
0.645434,1.97878,4.89313,0.968151,3.14159,0
0.662853,1.99552,4.88969,0.994279,3.14159,0
0.679703,2.01212,4.88618,1.01955,3.14159,0
0.696028,2.02858,4.88261,1.04404,3.14159,0
0.711867,2.04491,4.87897,1.0678,3.14159,0
0.727255,2.0611,4.87527,1.09088,3.14159,0
0.742221,2.07716,4.8715,1.11333,3.14159,0
0.756793,2.09309,4.86768,1.13519,3.14159,0
0.770997,2.10889,4.8638,1.15649,3.14159,0
0.784853,2.12458,4.85987,1.17728,3.14159,0
0.798382,2.14014,4.85588,1.19757,3.14159,0
0.811603,2.15558,4.85183,1.2174,3.14159,0
0.824533,2.17091,4.84773,1.2368,3.14159,0
0.837187,2.18612,4.84358,1.25578,3.14159,0
0.849579,2.20123,4.83938,1.27437,3.14159,0
0.861724,2.21622,4.83513,1.29259,3.14159,0
0.873632,2.23112,4.83084,1.31045,3.14159,0
0.885315,2.2459,4.8265,1.32797,3.14159,0
0.896784,2.26059,4.82212,1.34518,3.14159,0
0.908049,2.27519,4.81769,1.36207,3.14159,0
0.919119,2.28968,4.81323,1.37868,3.14159,0
0.930002,2.30409,4.80872,1.395,3.14159,0
0.940708,2.31841,4.80417,1.41106,3.14159,0
0.951242,2.33263,4.79959,1.42686,3.14159,0
0.961614,2.34678,4.79498,1.44242,3.14159,0
0.971828,2.36084,4.79033,1.45774,3.14159,0
0.981892,2.37483,4.78565,1.47284,3.14159,0
0.991813,2.38873,4.78093,1.48772,3.14159,0
1.00159,2.40257,4.77619,1.50239,3.14159,0
1.01124,2.41633,4.77142,1.51686,3.14159,0
1.02076,2.43002,4.76662,1.53115,3.14159,0
1.03016,2.44365,4.7618,1.54524,3.14159,0
1.03944,2.45722,4.75695,1.55916,3.14159,0
1.04861,2.47072,4.75208,1.57291,3.14159,0
1.05766,2.48417,4.74719,1.5865,3.14159,0
1.06662,2.49756,4.74229,1.59992,3.14159,0
1.07547,2.51089,4.73736,1.6132,3.14159,0
1.08422,2.52418,4.73242,1.62633,3.14159,0
1.09288,2.53742,4.72746,1.63931,3.14159,0
1.10144,2.55061,4.72249,1.65216,3.14159,0
1.10992,2.56376,4.7175,1.66488,3.14159,0
1.11832,2.57687,4.71251,1.67748,3.14159,0
1.12663,2.58995,4.7075,1.68995,3.14159,0
1.13487,2.60298,4.70249,1.7023,3.14159,0
1.14303,2.61599,4.69747,1.71454,3.14159,0
1.15111,2.62897,4.69245,1.72667,3.14159,0
1.15913,2.64192,4.68742,1.7387,3.14159,0
1.16708,2.65484,4.6824,1.75062,3.14159,0
1.17497,2.66775,4.67737,1.76245,3.14159,0
1.18279,2.68063,4.67234,1.77418,3.14159,0
1.19055,2.6935,4.66731,1.78582,3.14159,0
1.19825,2.70635,4.66229,1.79738,3.14159,0
1.2059,2.7192,4.65727,1.80885,3.14159,0
1.21349,2.73203,4.65226,1.82024,3.14159,0
1.22103,2.74486,4.64726,1.83155,3.14159,0
1.22852,2.75768,4.64226,1.84278,3.14159,0
1.23596,2.77051,4.63728,1.85395,3.14159,0
1.24336,2.78333,4.63231,1.86504,3.14159,0
1.25071,2.79616,4.62735,1.87607,3.14159,0
1.25802,2.809,4.62241,1.88704,3.14159,0
1.26529,2.82184,4.61749,1.89794,3.14159,0
1.27252,2.8347,4.61258,1.90879,3.14159,0
1.27972,2.84757,4.6077,1.91958,3.14159,0
1.28687,2.86046,4.60283,1.93031,3.14159,0
1.294,2.87337,4.59799,1.941,3.14159,0
1.30109,2.8863,4.59317,1.95163,3.14159,0
1.30815,2.89926,4.58837,1.96222,3.14159,0
1.31518,2.91224,4.5836,1.97277,3.14159,0
1.32218,2.92526,4.57886,1.98327,3.14159,0
1.32916,2.93831,4.57415,1.99374,3.14159,0
1.33611,2.95139,4.56947,2.00416,3.14159,0
1.34304,2.96451,4.56483,2.01455,3.14159,0
1.34994,2.97767,4.56022,2.02491,3.14159,0
1.35683,2.99088,4.55564,2.03524,3.14159,0
1.36369,3.00413,4.5511,2.04554,3.14159,0
1.37054,3.01743,4.5466,2.05581,3.14159,0
1.37737,3.03078,4.54213,2.06605,3.14159,0
1.38418,3.04419,4.53771,2.07628,3.14159,0
1.39098,3.05765,4.53333,2.08648,3.14159,0
1.39777,3.07117,4.529,2.09666,3.14159,0
1.40455,3.08475,4.52471,2.10683,3.14159,0
1.41132,3.09839,4.52047,2.11697,3.14159,0
1.41807,3.11211,4.51627,2.12711,3.14159,0
1.42482,3.12589,4.51213,2.13724,3.14159,0
1.43157,3.13974,4.50804,2.14735,3.14159,0
1.4383,3.15367,4.504,2.15746,3.14159,0
1.44504,3.16768,4.50001,2.16756,3.14159,0
1.45177,3.18176,4.49608,2.17765,3.14159,0
1.4585,3.19593,4.49221,2.18775,3.14159,0
1.46523,3.21018,4.48839,2.19784,3.14159,0
1.47196,3.22452,4.48464,2.20793,3.14159,0
1.47869,3.23895,4.48094,2.21803,3.14159,0
1.48542,3.25348,4.47731,2.22813,3.14159,0
1.49216,3.26809,4.47374,2.23824,3.14159,0
1.4989,3.28281,4.47024,2.24835,3.14159,0
1.50565,3.29763,4.46681,2.25848,3.14159,0
1.51241,3.31255,4.46344,2.26861,3.14159,0
1.51917,3.32757,4.46015,2.27876,3.14159,0
1.52595,3.34271,4.45692,2.28893,3.14159,0
1.53274,3.35795,4.45377,2.29911,3.14159,0
1.53953,3.37331,4.45069,2.3093,3.14159,0
1.54635,3.38879,4.44769,2.31952,3.14159,0
1.55317,3.40438,4.44477,2.32976,3.14159,0
1.56001,3.4201,4.44192,2.34002,3.14159,0
1.56687,3.43594,4.43915,2.3503,3.14159,0
1.57374,3.4519,4.43647,2.36061,3.14159,0
1.58063,3.468,4.43387,2.37095,3.14159,0
1.58754,3.48423,4.43135,2.38132,3.14159,0
1.59448,3.50059,4.42892,2.39171,3.14159,0
1.60143,3.51709,4.42658,2.40214,3.14159,0
1.6084,3.53373,4.42432,2.4126,3.14159,0
1.6154,3.55051,4.42216,2.4231,3.14159,0
1.62242,3.56743,4.42008,2.43363,3.14159,0
1.62947,3.58451,4.4181,2.4442,3.14159,0
1.63654,3.60173,4.41622,2.45481,3.14159,0
1.64364,3.6191,4.41443,2.46546,3.14159,0
1.65077,3.63663,4.41273,2.47616,3.14159,0
1.65793,3.65432,4.41114,2.48689,3.14159,0
1.66511,3.67217,4.40965,2.49767,3.14159,0
1.67233,3.69019,4.40825,2.5085,3.14159,0
1.67958,3.70836,4.40696,2.51937,3.14159,0
1.68686,3.72671,4.40578,2.53029,3.14159,0
1.69418,3.74523,4.4047,2.54127,3.14159,0
1.70153,3.76392,4.40373,2.55229,3.14159,0
1.70891,3.78278,4.40287,2.56336,3.14159,0
1.71633,3.80183,4.40212,2.57449,3.14159,0
1.72379,3.82106,4.40147,2.58568,3.14159,0
1.73128,3.84047,4.40095,2.59692,3.14159,0
1.73881,3.86006,4.40054,2.60822,3.14159,0
1.74642,3.87985,4.40024,2.6,3.14159,0
1.75411,3.89983,4.40006,2.6,3.14159,0
1.76186,3.92,4.4,2.6,3.14159,0
1.77204,3.94645,4.39999,2.6,5.23476,0
1.78213,3.97269,4.39996,2.6,5.23476,0
1.79214,3.99873,4.39991,2.6,5.23476,0
1.80208,4.02457,4.39984,2.6,5.23476,0
1.81194,4.0502,4.39975,2.6,5.23476,0
1.82173,4.07564,4.39964,2.6,5.23476,0
1.83143,4.10088,4.39951,2.6,5.23476,0
1.84106,4.12592,4.39935,2.6,5.23476,0
1.85062,4.15077,4.39917,2.6,5.23476,0
1.8601,4.17542,4.39897,2.6,5.23476,0
1.86951,4.19988,4.39875,2.6,5.23476,0
1.87884,4.22414,4.3985,2.6,5.23476,0
1.8881,4.24822,4.39822,2.6,5.23476,0
1.89729,4.2721,4.39792,2.6,5.23476,0
1.9064,4.2958,4.3976,2.6,5.23476,0
1.91545,4.3193,4.39725,2.6,5.23476,0
1.92442,4.34262,4.39688,2.6,5.23476,0
1.93332,4.36576,4.39648,2.6,5.23476,0
1.94215,4.38871,4.39605,2.6,5.23476,0
1.95091,4.41148,4.39559,2.6,5.23476,0
1.95959,4.43407,4.3951,2.6,5.23476,0
1.96821,4.45647,4.39459,2.6,5.23476,0
1.97677,4.4787,4.39405,2.6,5.23476,0
1.98525,4.50075,4.39348,2.6,5.23476,0
1.99366,4.52262,4.39288,2.6,5.23476,0
2.00201,4.54431,4.39225,2.6,5.23476,0
2.01029,4.56583,4.39158,2.6,5.23476,0
2.01851,4.58718,4.39089,2.6,5.23476,0
2.02665,4.60835,4.39017,2.6,5.23476,0
2.03474,4.62935,4.38941,2.6,5.23476,0
2.04276,4.65019,4.38862,2.6,5.23476,0
2.05071,4.67085,4.3878,2.6,5.23476,0
2.0586,4.69135,4.38694,2.6,5.23476,0
2.06642,4.71167,4.38605,2.6,5.23476,0
2.07419,4.73184,4.38513,2.6,5.23476,0
2.08189,4.75183,4.38417,2.6,5.23476,0
2.08953,4.77167,4.38318,2.6,5.23476,0
2.0971,4.79134,4.38215,2.6,5.23476,0
2.10462,4.81086,4.38109,2.6,5.23476,0
2.11208,4.83021,4.37999,2.6,5.23476,0
2.11947,4.84941,4.37885,2.6,5.23476,0
2.12681,4.86844,4.37768,2.6,5.23476,0
2.13408,4.88732,4.37646,2.6,5.23476,0
2.1413,4.90605,4.37521,2.6,5.23476,0
2.14846,4.92462,4.37392,2.6,5.23476,0
2.15557,4.94304,4.3726,2.6,5.23476,0
2.16261,4.96131,4.37123,2.6,5.23476,0
2.1696,4.97943,4.36982,2.6,5.23476,0
2.17654,4.9974,4.36837,2.6,5.23476,0
2.18341,5.01522,4.36688,2.6,5.23476,0
2.19024,5.03289,4.36535,2.6,5.23476,0
2.19701,5.05042,4.36378,2.6,5.23476,0
2.20372,5.06781,4.36217,2.6,5.23476,0
2.21038,5.08505,4.36051,2.6,5.23476,0
2.21699,5.10215,4.35881,2.6,5.23476,0
2.22355,5.1191,4.35707,2.6,5.23476,0
2.23005,5.13592,4.35528,2.6,5.23476,0
2.23651,5.1526,4.35345,2.6,5.23476,0
2.24291,5.16914,4.35157,2.6,5.23476,0
2.24926,5.18555,4.34965,2.6,5.23476,0
2.25558,5.20182,4.34768,2.59053,5.23476,0
2.26187,5.21796,4.34567,2.58109,5.23476,0
2.26813,5.23396,4.34361,2.5717,5.23476,0
2.27437,5.24983,4.3415,2.56234,5.23476,0
2.28058,5.26558,4.33935,2.55302,5.23476,0
2.28677,5.28119,4.33715,2.54374,5.23476,0
2.29293,5.29668,4.3349,2.5345,5.23476,0
2.29907,5.31203,4.3326,2.52529,5.23476,0
2.30518,5.32726,4.33025,2.51612,5.23476,0
2.31127,5.34237,4.32785,2.50698,5.23476,0
2.31734,5.35736,4.3254,2.49788,5.23476,0
2.32339,5.37222,4.3229,2.48882,5.23476,0
2.32941,5.38696,4.32035,2.47978,5.23476,0
2.33541,5.40158,4.31775,2.47078,5.23476,0
2.34138,5.41608,4.31509,2.46182,5.23476,0
2.34734,5.43047,4.31239,2.45288,5.23476,0
2.35328,5.44474,4.30963,2.44398,5.23476,0
2.35919,5.45889,4.30682,2.43511,5.23476,0
2.36509,5.47293,4.30395,2.42626,5.23476,0
2.37096,5.48686,4.30103,2.41745,5.23476,0
2.37682,5.50067,4.29805,2.40867,5.23476,0
2.38266,5.51438,4.29502,2.39991,5.23476,0
2.38848,5.52797,4.29194,2.39118,5.23476,0
2.39428,5.54146,4.2888,2.38248,5.23476,0
2.40006,5.55484,4.2856,2.3738,5.23476,0
2.40583,5.56811,4.28235,2.36515,5.23476,0
2.41158,5.58128,4.27903,2.35652,5.23476,0
2.41732,5.59435,4.27566,2.34792,5.23476,0
2.42304,5.60731,4.27224,2.33934,5.23476,0
2.42875,5.62017,4.26875,2.33078,5.23476,0
2.43444,5.63293,4.26521,2.32224,5.23476,0
2.44012,5.6456,4.2616,2.31372,5.23476,0
2.44579,5.65816,4.25794,2.30521,5.23476,0
2.45144,5.67063,4.25421,2.29673,5.23476,0
2.45709,5.68301,4.25043,2.28826,5.23476,0
2.46272,5.69529,4.24658,2.27981,5.23476,0
2.46835,5.70747,4.24267,2.27138,5.23476,0
2.47396,5.71957,4.2387,2.26295,5.23476,0
2.47957,5.73157,4.23467,2.25454,5.23476,0
2.48517,5.74349,4.23057,2.24615,5.23476,0
2.49076,5.75532,4.22641,2.23776,5.23476,0
2.49634,5.76705,4.22219,2.22938,5.23476,0
2.50192,5.77871,4.2179,2.22101,5.23476,0
2.5075,5.79028,4.21355,2.21264,5.23476,0
2.51307,5.80176,4.20913,2.20429,5.23476,0
2.51864,5.81316,4.20465,2.19593,5.23476,0
2.52421,5.82449,4.2001,2.18758,5.23476,0
2.52977,5.83573,4.19548,2.17923,5.23476,0
2.53534,5.84689,4.1908,2.17089,5.23476,0
2.54091,5.85797,4.18605,2.16254,5.23476,0
2.54647,5.86898,4.18123,2.15418,5.23476,0
2.55204,5.87992,4.17634,2.14583,5.23476,0
2.55762,5.89077,4.17139,2.13747,5.23476,0
2.56319,5.90156,4.16636,2.1291,5.23476,0
2.56878,5.91227,4.16127,2.12073,5.23476,0
2.57437,5.92291,4.1561,2.11235,5.23476,0
2.57996,5.93349,4.15087,2.10395,5.23476,0
2.58557,5.94399,4.14556,2.09554,5.23476,0
2.59118,5.95443,4.14018,2.08712,5.23476,0
2.59681,5.9648,4.13473,2.07869,5.23476,0
2.60244,5.97511,4.12921,2.07023,5.23476,0
2.60809,5.98535,4.12362,2.06176,5.23476,0
2.61375,5.99553,4.11795,2.05326,5.23476,0
2.61943,6.00565,4.11221,2.04475,5.23476,0
2.62513,6.01571,4.10639,2.0362,5.23476,0
2.63084,6.02571,4.1005,2.02764,5.23476,0
2.63657,6.03565,4.09453,2.01904,5.23476,0
2.64232,6.04553,4.08849,2.01042,5.23476,0
2.64809,6.05536,4.08238,2.00176,5.23476,0
2.65388,6.06514,4.07619,1.99307,5.23476,0
2.6597,6.07486,4.06992,1.98435,5.23476,0
2.66554,6.08453,4.06357,1.97558,5.23476,0
2.67141,6.09415,4.05714,1.96678,5.23476,0
2.6773,6.10372,4.05064,1.95794,5.23476,0
2.68323,6.11324,4.04406,1.94905,5.23476,0
2.68918,6.12271,4.0374,1.94012,5.23476,0
2.69517,6.13214,4.03066,1.93114,5.23476,0
2.70119,6.14152,4.02384,1.92211,5.23476,0
2.70725,6.15086,4.01694,1.91302,5.23476,0
2.71334,6.16016,4.00996,1.90389,5.23476,0
2.71947,6.16941,4.0029,1.89469,5.23476,0
2.72563,6.17862,3.99576,1.88544,5.23476,0
2.73184,6.1878,3.98853,1.87613,5.23476,0
2.7381,6.19693,3.98122,1.86675,5.23476,0
2.74439,6.20603,3.97383,1.85731,5.23476,0
2.75073,6.2151,3.96636,1.84779,5.23476,0
2.75712,6.22413,3.9588,1.83821,5.23476,0
2.76356,6.23312,3.95116,1.82855,5.23476,0
2.77005,6.24209,3.94343,1.81882,5.23476,0
2.77659,6.25102,3.93562,1.809,5.23476,0
2.78319,6.25993,3.92772,1.79911,5.23476,0
2.78984,6.2688,3.91974,1.78913,5.23476,0
2.79656,6.27765,3.91167,1.77906,5.23476,0
2.80333,6.28647,3.90351,1.7689,5.23476,0
2.81016,6.29526,3.89526,1.75865,5.23476,0
2.81707,6.30404,3.88693,1.7483,5.23476,0
2.82403,6.31279,3.87851,1.73785,5.23476,0
2.83107,6.32151,3.87,1.72729,5.23476,0
2.83817,6.33022,3.8614,1.71663,5.23476,0
2.84535,6.33891,3.85271,1.70586,5.23476,0
2.85261,6.34758,3.84393,1.69498,5.23476,0
2.85994,6.35623,3.83506,1.68398,5.23476,0
2.86736,6.36487,3.8261,1.67286,5.23476,0
2.87486,6.37349,3.81705,1.66161,5.23476,0
2.88244,6.3821,3.80791,1.65023,5.23476,0
2.89011,6.3907,3.79867,1.63872,5.23476,0
2.89788,6.39928,3.78934,1.62708,5.23476,0
2.90574,6.40786,3.77992,1.61529,5.23476,0
2.91369,6.41642,3.77041,1.60336,5.23476,0
2.92175,6.42498,3.7608,1.59127,5.23476,0
2.92991,6.43354,3.75109,1.57903,5.23476,0
2.93818,6.44208,3.74129,1.56663,5.23476,0
2.94655,6.45063,3.7314,1.55406,5.23476,0
2.95505,6.45917,3.72141,1.54132,5.23476,0
2.96366,6.46771,3.71132,1.52841,5.23476,0
2.97239,6.47625,3.70114,1.51531,5.23476,0
2.98125,6.48478,3.69086,1.50202,5.23476,0
2.99024,6.49333,3.68048,1.48854,5.23476,0
2.99936,6.50187,3.67001,1.47486,5.23476,0
3.00862,6.51042,3.65943,1.46096,5.23476,0
3.01803,6.51897,3.64876,1.44685,5.23476,0
3.02759,6.52753,3.63799,1.43252,5.23476,0
3.0373,6.5361,3.62711,1.41795,5.23476,0
3.04717,6.54467,3.61614,1.40314,5.23476,0
3.05721,6.55326,3.60507,1.38808,5.23476,0
3.06743,6.56186,3.59389,1.37276,5.23476,0
3.07782,6.57047,3.58262,1.35717,5.23476,0
3.0884,6.57909,3.57124,1.34129,5.23476,0
3.09918,6.58773,3.55976,1.32513,5.23476,0
3.11016,6.59638,3.54817,1.30866,5.23476,0
3.12135,6.60505,3.53649,1.29187,5.23476,0
3.13276,6.61374,3.5247,1.27475,5.23476,0
3.14441,6.62245,3.5128,1.25729,5.23476,0
3.15629,6.63117,3.5008,1.23946,5.23476,0
3.16843,6.63992,3.4887,1.22125,5.23476,0
3.18084,6.6487,3.47648,1.20264,5.23476,0
3.19352,6.65749,3.46417,1.18361,5.23476,0
3.2065,6.66632,3.45175,1.16414,5.23476,0
3.21979,6.67516,3.43922,1.1442,5.23476,0
3.23341,6.68404,3.42658,1.12378,5.23476,0
3.24738,6.69294,3.41383,1.10283,5.23476,0
3.26171,6.70188,3.40098,1.08133,5.23476,0
3.27644,6.71084,3.38802,1.05924,5.23476,0
3.29158,6.71984,3.37494,1.03652,5.23476,0
3.30717,6.72887,3.36176,1.01314,5.23476,0
3.32324,6.73794,3.34847,0.989031,5.23476,0
3.33983,6.74704,3.33507,0.964149,5.23476,0
3.35698,6.75618,3.32156,0.938427,5.23476,0
3.37473,6.76535,3.30794,0.911794,5.23476,0
3.39315,6.77457,3.2942,0.884165,5.23476,0
3.4123,6.78382,3.28035,0.855441,5.23476,0
3.43226,6.79312,3.26639,0.825506,5.23476,0
3.45312,6.80246,3.25232,0.794222,5.23476,0
3.47498,6.81184,3.23813,0.761418,5.23476,0
3.498,6.82127,3.22383,0.726889,5.23476,0
3.52235,6.83075,3.20941,0.690374,5.23476,0
3.54824,6.84027,3.19488,0.651535,5.23476,0
3.57598,6.84984,3.18024,0.609926,5.23476,0
3.60597,6.85946,3.16547,0.564933,5.23476,0
3.63882,6.86913,3.1506,0.515668,5.23476,0
3.67542,6.87886,3.1356,0.460758,5.23476,0
3.71735,6.88864,3.12049,0.397871,5.23476,0
3.76768,6.89847,3.10526,0.322367,5.23476,0
3.83479,6.90835,3.08991,0.221704,5.23476,0
3.9826,6.9183,3.07445,0,5.23476,0
