time,x_pos,y_pos,velocity,rotation,action
0,1.78,4.42,0,3.14159,0
0.107114,1.78309,4.43105,0.214229,3.14159,0
0.151131,1.78642,4.44192,0.302261,3.14159,0
0.18468,1.78998,4.45261,0.36936,3.14159,0
0.212796,1.79377,4.46312,0.425592,3.14159,0
0.237429,1.79779,4.47345,0.474857,3.14159,0
0.25959,1.80205,4.48361,0.51918,3.14159,0
0.279881,1.80653,4.4936,0.559761,3.14159,0
0.298693,1.81124,4.50341,0.597386,3.14159,0
0.316306,1.81618,4.51305,0.632612,3.14159,0
0.33292,1.82133,4.52253,0.66584,3.14159,0
0.348689,1.82671,4.53183,0.697378,3.14159,0
0.363732,1.83231,4.54097,0.727465,3.14159,0
0.378147,1.83813,4.54994,0.756294,3.14159,0
0.392011,1.84416,4.55875,0.784021,3.14159,0
0.40539,1.85041,4.5674,0.810779,3.14159,0
0.418339,1.85687,4.57589,0.836678,3.14159,0
0.430905,1.86355,4.58422,0.861811,3.14159,0
0.443128,1.87043,4.59239,0.886256,3.14159,0
0.455041,1.87752,4.6004,0.910082,3.14159,0
0.466676,1.88482,4.60826,0.933352,3.14159,0
0.478059,1.89232,4.61596,0.956118,3.14159,0
0.489214,1.90003,4.62351,0.978427,3.14159,0
0.500161,1.90794,4.63091,1.00032,3.14159,0
0.511039,1.91604,4.63817,1,3.14159,0
0.521968,1.92435,4.64527,1,3.14159,0
0.532955,1.93285,4.65223,1,3.14159,0
0.544003,1.94155,4.65904,1,3.14159,0
0.555117,1.95044,4.66571,1,3.14159,0
0.566302,1.95952,4.67224,1,3.14159,0
0.577561,1.9688,4.67863,1,3.14159,0
0.588899,1.97826,4.68487,1,3.14159,0
0.600317,1.9879,4.69098,1,3.14159,0
0.611822,1.99773,4.69696,1,3.14159,0
0.623415,2.00775,4.70279,1,3.14159,0
0.6351,2.01795,4.7085,1,3.14159,0
0.646879,2.02832,4.71407,1,3.14159,0
0.658755,2.03888,4.71952,1,3.14159,0
0.67073,2.04961,4.72483,1,3.14159,0
0.682808,2.06052,4.73002,1,3.14159,0
0.694989,2.0716,4.73508,1,3.14159,0
0.707276,2.08285,4.74001,1,3.14159,0
0.71967,2.09427,4.74483,1,3.14159,0
0.732173,2.10586,4.74952,1,3.14159,0
0.744787,2.11762,4.75409,1,3.14159,0
0.757512,2.12954,4.75854,1,3.14159,0
0.770351,2.14163,4.76287,1,3.14159,0
0.783304,2.15387,4.76709,1,3.14159,0
0.796372,2.16628,4.77119,1,3.14159,0
0.809555,2.17885,4.77518,1,3.14159,0
0.822855,2.19157,4.77906,1,3.14159,0
0.836272,2.20445,4.78282,1,3.14159,0
0.849807,2.21748,4.78648,1,3.14159,0
0.863459,2.23066,4.79003,1,3.14159,0
0.87723,2.24399,4.79348,1,3.14159,0
0.891118,2.25747,4.79682,1,3.14159,0
0.905125,2.2711,4.80006,1,3.14159,0
0.91925,2.28487,4.80319,1,3.14159,0
0.933493,2.29879,4.80623,1,3.14159,0
0.947855,2.31285,4.80916,1,3.14159,0
0.962334,2.32704,4.812,1,3.14159,0
0.976931,2.34138,4.81475,1,3.14159,0
0.991645,2.35585,4.8174,1,3.14159,0
1.00647,2.37046,4.81995,1,3.14159,0
1.02142,2.3852,4.82242,1,3.14159,0
1.03648,2.40008,4.82479,1,3.14159,0
1.05166,2.41508,4.82708,1,3.14159,0
1.06695,2.43021,4.82927,1,3.14159,0
1.08236,2.44547,4.83139,1,3.14159,0
1.09787,2.46086,4.83341,1,3.14159,0
1.1135,2.47637,4.83536,1,3.14159,0
1.12924,2.492,4.83722,1,3.14159,0
1.14509,2.50774,4.83901,1,3.14159,0
1.16105,2.52361,4.84071,1,3.14159,0
1.17712,2.5396,4.84234,1,3.14159,0
1.1933,2.5557,4.84389,1,3.14159,0
1.20958,2.57191,4.84537,1,3.14159,0
1.22596,2.58824,4.84677,1,3.14159,0
1.24245,2.60467,4.84811,1,3.14159,0
1.25905,2.62122,4.84937,1,3.14159,0
1.27574,2.63787,4.85057,1,3.14159,0
1.29253,2.65463,4.8517,1,3.14159,0
1.30943,2.67149,4.85276,1,3.14159,0
1.32642,2.68845,4.85376,1,3.14159,0
1.34351,2.70551,4.85469,1,3.14159,0
1.36069,2.72267,4.85557,1,3.14159,0
1.37797,2.73993,4.85638,1,3.14159,0
1.39534,2.75728,4.85714,1,3.14159,0
1.4128,2.77473,4.85784,1,3.14159,0
1.43035,2.79227,4.85848,1,3.14159,0
1.44799,2.8099,4.85907,1,3.14159,0
1.46571,2.82761,4.85961,1,3.14159,0
1.48352,2.84542,4.86009,1,3.14159,0
1.50142,2.86331,4.86053,1,3.14159,0
1.5194,2.88128,4.86091,1,3.14159,0
1.53745,2.89934,4.86125,1,3.14159,0
1.55559,2.91747,4.86155,1,3.14159,0
1.57381,2.93569,4.8618,1,3.14159,0
1.5921,2.95398,4.86201,1,3.14159,0
1.61047,2.97234,4.86218,1,3.14159,0
1.62891,2.99078,4.86231,1,3.14159,0
1.64742,3.0093,4.8624,1,3.14159,0
1.666,3.02788,4.86245,1,3.14159,0
1.68465,3.04653,4.86247,1,3.14159,0
1.70337,3.06525,4.86245,1,3.14159,0
1.72216,3.08403,4.8624,1,3.14159,0
1.741,3.10288,4.86232,1,3.14159,0
1.75991,3.12179,4.86221,1,3.14159,0
1.77888,3.14076,4.86207,1,3.14159,0
1.79791,3.15979,4.86191,1,3.14159,0
1.817,3.17887,4.86172,1,3.14159,0
1.83614,3.19801,4.86151,1,3.14159,0
1.85534,3.21721,4.86127,1,3.14159,0
1.87459,3.23645,4.86102,1,3.14159,0
1.89388,3.25575,4.86074,1,3.14159,0
1.91323,3.2751,4.86045,1,3.14159,0
1.93263,3.29449,4.86014,1,3.14159,0
1.95207,3.31393,4.85981,1,3.14159,0
1.97155,3.33341,4.85947,1,3.14159,0
1.99108,3.35293,4.85912,1,3.14159,0
2.01065,3.3725,4.85876,1,3.14159,0
2.03026,3.3921,4.85838,1,3.14159,0
2.0499,3.41174,4.858,1,3.14159,0
2.06958,3.43142,4.85762,1,3.14159,0
2.08929,3.45113,4.85723,1,3.14159,0
2.10904,3.47087,4.85683,1,3.14159,0
2.12882,3.49064,4.85643,1,3.14159,0
2.14862,3.51044,4.85604,1,3.14159,0
2.16845,3.53027,4.85564,1,3.14159,0
2.18831,3.55013,4.85524,1,3.14159,0
2.20819,3.57,4.85485,1,3.14159,0
2.2281,3.5899,4.85447,1,3.14159,0
2.24802,3.60982,4.85409,1,3.14159,0
2.26796,3.62976,4.85371,1,3.14159,0
2.28792,3.64972,4.85335,1,3.14159,0
2.3079,3.66969,4.853,1,3.14159,0
2.32789,3.68968,4.85266,1,3.14159,0
2.34789,3.70967,4.85233,1,3.14159,0
2.3679,3.72968,4.85202,1,3.14159,0
2.38792,3.7497,4.85173,1,3.14159,0
2.40794,3.76972,4.85145,1,3.14159,0
2.42797,3.78975,4.8512,1,3.14159,0
2.44801,3.80979,4.85096,1,3.14159,0
2.46805,3.82982,4.85075,1,3.14159,0
2.48808,3.84986,4.85056,1,3.14159,0
2.50812,3.8699,4.85039,1,3.14159,0
2.52815,3.88993,4.85026,1,3.14159,0
2.54818,3.90996,4.85015,1,3.14159,0
2.56821,3.92998,4.85007,1,3.14159,0
2.58822,3.94999,4.85002,1,3.14159,0
2.60823,3.97,4.85,1,3.14159,0
2.64017,4.00195,4.84999,1,5.91083,0
2.67185,4.03362,4.84996,1,5.91083,0
2.70324,4.06502,4.8499,1,5.91083,0
2.73437,4.09614,4.84982,1,5.91083,0
2.76522,4.127,4.84972,1,5.91083,0
2.79581,4.15759,4.8496,1,5.91083,0
2.82613,4.1879,4.84946,1,5.91083,0
2.85618,4.21796,4.84929,1,5.91083,0
2.88597,4.24775,4.84911,1,5.91083,0
2.9155,4.27727,4.8489,1,5.91083,0
2.94477,4.30654,4.84867,1,5.91083,0
2.97377,4.33554,4.84841,1,5.91083,0
3.00252,4.36429,4.84814,1,5.91083,0
3.03101,4.39278,4.84784,1,5.91083,0
3.05925,4.42102,4.84753,1,5.91083,0
3.08724,4.449,4.84719,1,5.91083,0
3.11497,4.47673,4.84682,1,5.91083,0
3.14245,4.50421,4.84644,1,5.91083,0
3.16969,4.53145,4.84604,1,5.91083,0
3.19668,4.55843,4.84561,1,5.91083,0
3.22342,4.58517,4.84516,1,5.91083,0
3.24992,4.61167,4.8447,1,5.91083,0
3.27618,4.63792,4.8442,1,5.91083,0
3.3022,4.66394,4.84369,1,5.91083,0
3.32798,4.68971,4.84316,1,5.91083,0
3.35353,4.71525,4.84261,1,5.91083,0
3.37883,4.74055,4.84203,1,5.91083,0
3.40391,4.76562,4.84143,1,5.91083,0
3.42875,4.79045,4.84082,1,5.91083,0
3.45336,4.81506,4.84018,1,5.91083,0
3.47775,4.83943,4.83952,1,5.91083,0
3.5019,4.86358,4.83884,1,5.91083,0
3.52583,4.8875,4.83813,1,5.91083,0
3.54954,4.91119,4.83741,1,5.91083,0
3.57302,4.93466,4.83667,1,5.91083,0
3.59628,4.95791,4.8359,1,5.91083,0
3.61933,4.98094,4.83511,1,5.91083,0
3.64215,5.00375,4.83431,1,5.91083,0
3.66476,5.02635,4.83348,1,5.91083,0
3.68716,5.04873,4.83263,1,5.91083,0
3.70934,5.07089,4.83176,1,5.91083,0
3.73131,5.09285,4.83087,1,5.91083,0
3.75307,5.11459,4.82996,1,5.91083,0
3.77463,5.13612,4.82903,1,5.91083,0
3.79598,5.15745,4.82807,1,5.91083,0
3.81712,5.17857,4.8271,1,5.91083,0
3.83806,5.19949,4.82611,1,5.91083,0
3.8588,5.2202,4.82509,1,5.91083,0
3.87933,5.24071,4.82406,1,5.91083,0
3.89968,5.26103,4.823,1,5.91083,0
3.91982,5.28114,4.82193,1,5.91083,0
3.93977,5.30106,4.82083,1,5.91083,0
3.95952,5.32079,4.81972,1,5.91083,0
3.97909,5.34032,4.81858,1,5.91083,0
3.99846,5.35965,4.81742,1,5.91083,0
4.01765,5.3788,4.81624,1,5.91083,0
4.03665,5.39777,4.81505,1,5.91083,0
4.05546,5.41654,4.81383,1,5.91083,0
4.07409,5.43513,4.81259,1,5.91083,0
4.09254,5.45353,4.81133,1,5.91083,0
4.1108,5.47176,4.81005,1,5.91083,0
4.12889,5.4898,4.80876,1,5.91083,0
4.14681,5.50766,4.80744,1,5.91083,0
4.16454,5.52535,4.8061,1,5.91083,0
4.1821,5.54286,4.80474,1,5.91083,0
4.1995,5.56019,4.80336,1,5.91083,0
4.21671,5.57736,4.80196,1,5.91083,0
4.23377,5.59435,4.80055,1,5.91083,0
4.25065,5.61117,4.79911,1,5.91083,0
4.26737,5.62782,4.79765,1,5.91083,0
4.28392,5.64431,4.79617,1,5.91083,0
4.30032,5.66064,4.79468,1,5.91083,0
4.31655,5.6768,4.79316,1,5.91083,0
4.33262,5.6928,4.79162,1,5.91083,0
4.34853,5.70863,4.79007,1,5.91083,0
4.36429,5.72431,4.78849,1,5.91083,0
4.3799,5.73984,4.7869,1,5.91083,0
4.39535,5.75521,4.78528,1,5.91083,0
4.41065,5.77042,4.78365,1,5.91083,0
4.42581,5.78549,4.782,1,5.91083,0
4.44081,5.8004,4.78032,1,5.91083,0
4.45567,5.81516,4.77863,1,5.91083,0
4.47039,5.82978,4.77692,1,5.91083,0
4.48496,5.84424,4.77519,1,5.91083,0
4.49939,5.85857,4.77344,1,5.91083,0
4.51368,5.87275,4.77167,1,5.91083,0
4.52784,5.8868,4.76988,1,5.91083,0
4.54186,5.9007,4.76807,1,5.91083,0
4.55575,5.91446,4.76624,1,5.91083,0
4.5695,5.92809,4.7644,1,5.91083,0
4.58312,5.94158,4.76253,1,5.91083,0
4.59661,5.95494,4.76065,1,5.91083,0
4.60998,5.96817,4.75875,1,5.91083,0
4.62322,5.98127,4.75682,1,5.91083,0
4.63633,5.99424,4.75488,1,5.91083,0
4.64932,6.00709,4.75292,1,5.91083,0
4.6622,6.01981,4.75094,1,5.91083,0
4.67495,6.0324,4.74895,1,5.91083,0
4.68758,6.04487,4.74693,1,5.91083,0
4.7001,6.05722,4.7449,1,5.91083,0
4.71251,6.06946,4.74284,1,5.91083,0
4.7248,6.08157,4.74077,1,5.91083,0
4.73698,6.09357,4.73868,1,5.91083,0
4.74905,6.10546,4.73657,1,5.91083,0
4.76101,6.11723,4.73444,1,5.91083,0
4.77287,6.1289,4.73229,1,5.91083,0
4.78463,6.14045,4.73013,1,5.91083,0
4.79628,6.15189,4.72794,1,5.91083,0
4.80783,6.16323,4.72574,1,5.91083,0
4.81928,6.17447,4.72352,1,5.91083,0
4.83063,6.1856,4.72128,1,5.91083,0
4.84189,6.19663,4.71902,1,5.91083,0
4.85306,6.20756,4.71675,1,5.91083,0
4.86413,6.21839,4.71446,1,5.91083,0
4.87511,6.22912,4.71214,1,5.91083,0
4.886,6.23976,4.70981,1,5.91083,0
4.8968,6.25031,4.70746,1,5.91083,0
4.90752,6.26076,4.7051,1,5.91083,0
4.91815,6.27112,4.70271,1,5.91083,0
4.92871,6.28139,4.70031,1,5.91083,0
4.93918,6.29158,4.69789,1,5.91083,0
4.94957,6.30168,4.69545,1,5.91083,0
4.95988,6.3117,4.69299,1,5.91083,0
4.97012,6.32163,4.69052,1,5.91083,0
4.98028,6.33149,4.68803,1,5.91083,0
4.99037,6.34126,4.68552,1,5.91083,0
5.00039,6.35095,4.68299,1,5.91083,0
5.01034,6.36057,4.68044,1,5.91083,0
5.02023,6.37012,4.67788,1,5.91083,0
5.03004,6.37959,4.6753,1,5.91083,0
5.0398,6.38899,4.6727,1,5.91083,0
5.04949,6.39832,4.67008,1,5.91083,0
5.05911,6.40758,4.66745,1,5.91083,0
5.06868,6.41678,4.66479,1,5.91083,0
5.0782,6.42591,4.66212,1,5.91083,0
5.08765,6.43497,4.65944,1,5.91083,0
5.09705,6.44398,4.65673,1,5.91083,0
5.1064,6.45292,4.65401,1,5.91083,0
5.1157,6.46181,4.65127,1,5.91083,0
5.12495,6.47063,4.64852,1,5.91083,0
5.13415,6.47941,4.64574,1,5.91083,0
5.1433,6.48812,4.64295,1,5.91083,0
5.15241,6.49679,4.64014,1,5.91083,0
5.16148,6.5054,4.63732,1,5.91083,0
5.1705,6.51397,4.63447,1,5.91083,0
5.17949,6.52248,4.63161,1,5.91083,0
5.18843,6.53095,4.62874,1,5.91083,0
5.19734,6.53938,4.62584,1,5.91083,0
5.20621,6.54776,4.62293,1,5.91083,0
5.21505,6.5561,4.62,1,5.91083,0
5.22386,6.56441,4.61706,1,5.91083,0
5.23264,6.57267,4.61409,1,5.91083,0
5.24139,6.5809,4.61111,1,5.91083,0
5.25011,6.58909,4.60812,1,5.91083,0
5.25881,6.59724,4.6051,1,5.91083,0
5.26748,6.60537,4.60208,1,5.91083,0
5.27621,6.61347,4.59903,0.982548,5.91083,0
5.28507,6.62153,4.59596,0.964825,5.91083,0
5.29407,6.62957,4.59289,0.946813,5.91083,0
5.30324,6.63758,4.58979,0.928489,5.91083,0
5.31257,6.64557,4.58667,0.909831,5.91083,0
5.32207,6.65354,4.58354,0.890816,5.91083,0
5.33177,6.66148,4.5804,0.871419,5.91083,0
5.34168,6.66941,4.57724,0.851607,5.91083,0
5.35181,6.67732,4.57406,0.831349,5.91083,0
5.36218,6.68521,4.57086,0.810605,5.91083,0
5.37281,6.69309,4.56765,0.789336,5.91083,0
5.38374,6.70095,4.56442,0.767492,5.91083,0
5.39497,6.70881,4.56117,0.745021,5.91083,0
5.40655,6.71665,4.55791,0.721858,5.91083,0
5.41852,6.72449,4.55463,0.69793,5.91083,0
5.4309,6.73231,4.55134,0.673154,5.91083,0
5.44377,6.74014,4.54803,0.647424,5.91083,0
5.45717,6.74796,4.5447,0.620619,5.91083,0
5.47119,6.75577,4.54136,0.592588,5.91083,0
5.48591,6.76359,4.538,0.563142,5.91083,0
5.50146,6.77141,4.53463,0.53204,5.91083,0
5.518,6.77923,4.53124,0.498967,5.91083,0
5.53573,6.78705,4.52783,0.463498,5.91083,0
5.55497,6.79489,4.52441,0.425021,5.91083,0
5.57617,6.80272,4.52097,0.382628,5.91083,0
5.60007,6.81057,4.51751,0.334825,5.91083,0
5.62807,6.81843,4.51404,0.27883,5.91083,0
5.66342,6.8263,4.51055,0.208117,5.91083,0
5.72057,6.83418,4.50705,0.0938246,5.91083,0
5.76748,6.84208,4.50353,0,5.91083,0
