time,x_pos,y_pos,velocity,rotation,action
0,1.7,4.8,0,3.14159,0
0.143075,1.72036,4.79791,0.28615,3.14159,0
0.201805,1.74052,4.79587,0.40361,3.14159,0
0.246512,1.76046,4.7939,0.493024,3.14159,0
0.283904,1.7802,4.79198,0.567809,3.14159,0
0.316591,1.79974,4.79012,0.633181,3.14159,0
0.345912,1.81908,4.78831,0.691823,3.14159,0
0.372667,1.83823,4.78657,0.745333,3.14159,0
0.397379,1.85718,4.78487,0.794758,3.14159,0
0.420412,1.87595,4.78324,0.840824,3.14159,0
0.442032,1.89453,4.78165,0.884065,3.14159,0
0.462442,1.91292,4.78012,0.924884,3.14159,0
0.481798,1.93114,4.77864,0.963595,3.14159,0
0.500225,1.94918,4.77722,1.00045,3.14159,0
0.517826,1.96705,4.77585,1.03565,3.14159,0
0.534686,1.98474,4.77452,1.06937,3.14159,0
0.550875,2.00227,4.77325,1.10175,3.14159,0
0.566454,2.01963,4.77203,1.13291,3.14159,0
0.581475,2.03684,4.77086,1.16295,3.14159,0
0.595981,2.05388,4.76973,1.19196,3.14159,0
0.610014,2.07077,4.76865,1.22003,3.14159,0
0.623607,2.08751,4.76762,1.24721,3.14159,0
0.636791,2.10409,4.76664,1.27358,3.14159,0
0.649593,2.12054,4.7657,1.29919,3.14159,0
0.662038,2.13683,4.76481,1.32408,3.14159,0
0.674148,2.15299,4.76396,1.3483,3.14159,0
0.685944,2.16902,4.76316,1.37189,3.14159,0
0.697442,2.1849,4.7624,1.39488,3.14159,0
0.708661,2.20066,4.76168,1.41732,3.14159,0
0.719614,2.21629,4.76101,1.43923,3.14159,0
0.730318,2.2318,4.76037,1.46064,3.14159,0
0.740784,2.24718,4.75978,1.48157,3.14159,0
0.751024,2.26245,4.75923,1.50205,3.14159,0
0.76105,2.2776,4.75871,1.5221,3.14159,0
0.770872,2.29264,4.75824,1.54174,3.14159,0
0.7805,2.30757,4.7578,1.561,3.14159,0
0.789943,2.3224,4.75741,1.57989,3.14159,0
0.799209,2.33712,4.75704,1.59842,3.14159,0
0.808307,2.35174,4.75672,1.61661,3.14159,0
0.817244,2.36626,4.75643,1.63449,3.14159,0
0.826027,2.38069,4.75618,1.65205,3.14159,0
0.834662,2.39503,4.75596,1.66932,3.14159,0
0.843158,2.40929,4.75577,1.68632,3.14159,0
0.851519,2.42345,4.75562,1.70304,3.14159,0
0.859751,2.43754,4.7555,1.7195,3.14159,0
0.867859,2.45155,4.75541,1.73572,3.14159,0
0.87585,2.46548,4.75536,1.7517,3.14159,0
0.883727,2.47934,4.75533,1.76745,3.14159,0
0.891496,2.49313,4.75534,1.78299,3.14159,0
0.899161,2.50686,4.75537,1.79832,3.14159,0
0.906727,2.52052,4.75544,1.81345,3.14159,0
0.914197,2.53412,4.75553,1.82839,3.14159,0
0.921576,2.54767,4.75565,1.84315,3.14159,0
0.928868,2.56116,4.75579,1.85774,3.14159,0
0.936076,2.5746,4.75597,1.87215,3.14159,0
0.943204,2.588,4.75616,1.88641,3.14159,0
0.950255,2.60135,4.75639,1.90051,3.14159,0
0.957233,2.61466,4.75663,1.91447,3.14159,0
0.964141,2.62792,4.75691,1.92828,3.14159,0
0.970981,2.64116,4.7572,1.94196,3.14159,0
0.977758,2.65436,4.75752,1.95552,3.14159,0
0.984473,2.66753,4.75786,1.96895,3.14159,0
0.99113,2.68068,4.75822,1.98226,3.14159,0
0.997731,2.6938,4.7586,1.99546,3.14159,0
1.00428,2.70691,4.759,2.00856,3.14159,0
1.01078,2.71999,4.75942,2.02155,3.14159,0
1.01723,2.73307,4.75986,2.03445,3.14159,0
1.02363,2.74613,4.76031,2.04726,3.14159,0
1.02999,2.75918,4.76079,2.05998,3.14159,0
1.03631,2.77223,4.76128,2.07262,3.14159,0
1.04259,2.78528,4.76179,2.08519,3.14159,0
1.04884,2.79833,4.76231,2.09768,3.14159,0
1.05505,2.81138,4.76285,2.1101,3.14159,0
1.06123,2.82445,4.7634,2.12245,3.14159,0
1.06737,2.83752,4.76397,2.13475,3.14159,0
1.07349,2.85061,4.76455,2.14698,3.14159,0
1.07958,2.86371,4.76514,2.15917,3.14159,0
1.08565,2.87683,4.76574,2.1713,3.14159,0
1.0917,2.88998,4.76636,2.18339,3.14159,0
1.09772,2.90315,4.76698,2.19544,3.14159,0
1.10372,2.91636,4.76762,2.20745,3.14159,0
1.10971,2.92959,4.76826,2.21942,3.14159,0
1.11568,2.94286,4.76892,2.23136,3.14159,0
1.12164,2.95617,4.76958,2.24327,3.14159,0
1.12758,2.96952,4.77024,2.25516,3.14159,0
1.13351,2.98291,4.77092,2.26702,3.14159,0
1.13943,2.99636,4.7716,2.27886,3.14159,0
1.14534,3.00985,4.77229,2.29069,3.14159,0
1.15125,3.02339,4.77298,2.3025,3.14159,0
1.15715,3.037,4.77367,2.3143,3.14159,0
1.16305,3.05066,4.77437,2.3261,3.14159,0
1.16894,3.06439,4.77508,2.33788,3.14159,0
1.17483,3.07818,4.77578,2.34967,3.14159,0
1.18073,3.09204,4.77649,2.36145,3.14159,0
1.18662,3.10598,4.77719,2.37324,3.14159,0
1.19252,3.11999,4.7779,2.38503,3.14159,0
1.19842,3.13407,4.77861,2.39683,3.14159,0
1.20432,3.14824,4.77932,2.40864,3.14159,0
1.21023,3.1625,4.78002,2.42046,3.14159,0
1.21615,3.17684,4.78072,2.4323,3.14159,0
1.22207,3.19127,4.78142,2.44415,3.14159,0
1.22801,3.20579,4.78212,2.45602,3.14159,0
1.23396,3.22042,4.78281,2.46791,3.14159,0
1.23991,3.23514,4.7835,2.47983,3.14159,0
1.24588,3.24996,4.78419,2.49177,3.14159,0
1.25187,3.2649,4.78486,2.50374,3.14159,0
1.25789,3.27994,4.78553,2.5,3.14159,0
1.26396,3.29509,4.7862,2.5,3.14159,0
1.27007,3.31036,4.78685,2.5,3.14159,0
1.27623,3.32574,4.7875,2.5,3.14159,0
1.28244,3.34125,4.78814,2.5,3.14159,0
1.2887,3.35688,4.78877,2.5,3.14159,0
1.29501,3.37264,4.78939,2.5,3.14159,0
1.30137,3.38853,4.78999,2.5,3.14159,0
1.30778,3.40456,4.79059,2.5,3.14159,0
1.31425,3.42072,4.79117,2.5,3.14159,0
1.32077,3.43702,4.79174,2.5,3.14159,0
1.32735,3.45346,4.7923,2.5,3.14159,0
1.33399,3.47005,4.79284,2.5,3.14159,0
1.34069,3.48679,4.79337,2.5,3.14159,0
1.34745,3.50368,4.79388,2.5,3.14159,0
1.35427,3.52073,4.79438,2.5,3.14159,0
1.36116,3.53793,4.79486,2.5,3.14159,0
1.36811,3.5553,4.79532,2.5,3.14159,0
1.37512,3.57283,4.79577,2.5,3.14159,0
1.3822,3.59053,4.7962,2.5,3.14159,0
1.38935,3.6084,4.7966,2.5,3.14159,0
1.39657,3.62644,4.79699,2.5,3.14159,0
1.40386,3.64466,4.79736,2.5,3.14159,0
1.41122,3.66306,4.7977,2.5,3.14159,0
1.41865,3.68164,4.79803,2.5,3.14159,0
1.42616,3.70041,4.79833,2.5,3.14159,0
1.43375,3.71936,4.79861,2.5,3.14159,0
1.44141,3.73851,4.79887,2.5,3.14159,0
1.44914,3.75785,4.7991,2.5,3.14159,0
1.45696,3.7774,4.7993,2.5,3.14159,0
1.46486,3.79714,4.79948,2.5,3.14159,0
1.47284,3.81709,4.79964,2.5,3.14159,0
1.4809,3.83724,4.79977,2.5,3.14159,0
1.48905,3.85761,4.79987,2.5,3.14159,0
1.49728,3.87819,4.79994,2.5,3.14159,0
1.5056,3.89898,4.79999,2.5,3.14159,0
1.514,3.92,4.8,2.5,3.14159,0
1.52463,3.94656,4.79998,2.5,5.23476,0
1.53516,3.9729,4.79993,2.5,5.23476,0
1.54561,3.99903,4.79984,2.5,5.23476,0
1.55598,4.02494,4.79971,2.5,5.23476,0
1.56626,4.05064,4.79955,2.5,5.23476,0
1.57646,4.07613,4.79935,2.5,5.23476,0
1.58657,4.10141,4.79911,2.5,5.23476,0
1.5966,4.12648,4.79883,2.5,5.23476,0
1.60654,4.15134,4.79852,2.5,5.23476,0
1.61641,4.176,4.79816,2.5,5.23476,0
1.62619,4.20045,4.79777,2.5,5.23476,0
1.63589,4.2247,4.79734,2.5,5.23476,0
1.64551,4.24875,4.79687,2.5,5.23476,0
1.65505,4.2726,4.79636,2.5,5.23476,0
1.66451,4.29624,4.79581,2.5,5.23476,0
1.6739,4.31969,4.79522,2.5,5.23476,0
1.6832,4.34294,4.79459,2.5,5.23476,0
1.69243,4.366,4.79392,2.5,5.23476,0
1.70157,4.38886,4.7932,2.5,5.23476,0
1.71065,4.41153,4.79245,2.5,5.23476,0
1.71964,4.434,4.79165,2.5,5.23476,0
1.72856,4.45629,4.79082,2.5,5.23476,0
1.73741,4.47838,4.78994,2.5,5.23476,0
1.74618,4.50029,4.78901,2.5,5.23476,0
1.75487,4.52201,4.78805,2.5,5.23476,0
1.7635,4.54354,4.78704,2.5,5.23476,0
1.77205,4.56489,4.78598,2.5,5.23476,0
1.78053,4.58606,4.78489,2.5,5.23476,0
1.78893,4.60705,4.78374,2.5,5.23476,0
1.79727,4.62785,4.78256,2.5,5.23476,0
1.80553,4.64848,4.78133,2.5,5.23476,0
1.81373,4.66892,4.78005,2.5,5.23476,0
1.82185,4.6892,4.77873,2.5,5.23476,0
1.82991,4.70929,4.77736,2.5,5.23476,0
1.8379,4.72921,4.77595,2.5,5.23476,0
1.84582,4.74896,4.77449,2.5,5.23476,0
1.85367,4.76854,4.77298,2.5,5.23476,0
1.86146,4.78795,4.77143,2.5,5.23476,0
1.86918,4.80718,4.76983,2.5,5.23476,0
1.87684,4.82625,4.76818,2.5,5.23476,0
1.88443,4.84516,4.76649,2.5,5.23476,0
1.89196,4.8639,4.76474,2.5,5.23476,0
1.89943,4.88247,4.76295,2.5,5.23476,0
1.90683,4.90088,4.76111,2.5,5.23476,0
1.91417,4.91914,4.75922,2.5,5.23476,0
1.92144,4.93723,4.75728,2.5,5.23476,0
1.92866,4.95516,4.75529,2.5,5.23476,0
1.93582,4.97293,4.75325,2.5,5.23476,0
1.94291,4.99055,4.75116,2.5,5.23476,0
1.94995,5.00802,4.74902,2.5,5.23476,0
1.95693,5.02533,4.74683,2.5,5.23476,0
1.96385,5.04248,4.74459,2.5,5.23476,0
1.97072,5.05949,4.7423,2.5,5.23476,0
1.97752,5.07635,4.73995,2.5,5.23476,0
1.98428,5.09306,4.73755,2.5,5.23476,0
1.99097,5.10962,4.7351,2.5,5.23476,0
1.99761,5.12603,4.7326,2.5,5.23476,0
2.0042,5.1423,4.73004,2.5,5.23476,0
2.01074,5.15843,4.72744,2.5,5.23476,0
2.01722,5.17441,4.72477,2.5,5.23476,0
2.02365,5.19026,4.72206,2.5,5.23476,0
2.03003,5.20596,4.71929,2.5,5.23476,0
2.03636,5.22153,4.71646,2.5,5.23476,0
2.04263,5.23696,4.71358,2.5,5.23476,0
2.04886,5.25225,4.71065,2.5,5.23476,0
2.05504,5.26741,4.70766,2.5,5.23476,0
2.06118,5.28244,4.70461,2.5,5.23476,0
2.06726,5.29733,4.70151,2.5,5.23476,0
2.0733,5.31209,4.69835,2.5,5.23476,0
2.07929,5.32673,4.69513,2.5,5.23476,0
2.08524,5.34123,4.69186,2.5,5.23476,0
2.09115,5.35561,4.68853,2.5,5.23476,0
2.09701,5.36986,4.68514,2.5,5.23476,0
2.10282,5.38399,4.6817,2.5,5.23476,0
2.1086,5.398,4.67819,2.5,5.23476,0
2.11433,5.41188,4.67463,2.5,5.23476,0
2.12003,5.42565,4.67101,2.5,5.23476,0
2.12568,5.43929,4.66733,2.5,5.23476,0
2.13129,5.45282,4.66359,2.5,5.23476,0
2.13687,5.46623,4.6598,2.5,5.23476,0
2.14241,5.47953,4.65594,2.5,5.23476,0
2.14791,5.49271,4.65202,2.5,5.23476,0
2.15337,5.50578,4.64804,2.5,5.23476,0
2.1588,5.51873,4.644,2.5,5.23476,0
2.16419,5.53158,4.6399,2.5,5.23476,0
2.16955,5.54432,4.63573,2.5,5.23476,0
2.17488,5.55695,4.63151,2.5,5.23476,0
2.18018,5.56947,4.62722,2.5,5.23476,0
2.18544,5.58189,4.62287,2.5,5.23476,0
2.19067,5.59421,4.61846,2.5,5.23476,0
2.19588,5.60642,4.61399,2.5,5.23476,0
2.20105,5.61853,4.60945,2.5,5.23476,0
2.20619,5.63054,4.60485,2.5,5.23476,0
2.21131,5.64246,4.60018,2.5,5.23476,0
2.2164,5.65427,4.59545,2.5,5.23476,0
2.22147,5.66599,4.59065,2.5,5.23476,0
2.22651,5.67762,4.58579,2.5,5.23476,0
2.23152,5.68915,4.58087,2.5,5.23476,0
2.23652,5.70059,4.57588,2.5,5.23476,0
2.24148,5.71193,4.57082,2.5,5.23476,0
2.24643,5.72319,4.5657,2.5,5.23476,0
2.25136,5.73436,4.56051,2.5,5.23476,0
2.25626,5.74544,4.55526,2.5,5.23476,0
2.26115,5.75644,4.54994,2.5,5.23476,0
2.26602,5.76735,4.54455,2.5,5.23476,0
2.27087,5.77818,4.53909,2.5,5.23476,0
2.2757,5.78893,4.53357,2.5,5.23476,0
2.28052,5.79959,4.52797,2.5,5.23476,0
2.28532,5.81018,4.52231,2.5,5.23476,0
2.29011,5.82069,4.51658,2.5,5.23476,0
2.29489,5.83112,4.51078,2.49043,5.23476,0
2.29968,5.84147,4.50491,2.48086,5.23476,0
2.30448,5.85176,4.49898,2.47127,5.23476,0
2.30928,5.86196,4.49297,2.46166,5.23476,0
2.31409,5.8721,4.48689,2.45204,5.23476,0
2.31891,5.88217,4.48074,2.4424,5.23476,0
2.32374,5.89216,4.47452,2.43274,5.23476,0
2.32858,5.90209,4.46823,2.42306,5.23476,0
2.33343,5.91195,4.46187,2.41335,5.23476,0
2.3383,5.92175,4.45543,2.40362,5.23476,0
2.34318,5.93148,4.44893,2.39386,5.23476,0
2.34808,5.94115,4.44235,2.38407,5.23476,0
2.35299,5.95076,4.43569,2.37424,5.23476,0
2.35792,5.9603,4.42897,2.36439,5.23476,0
2.36286,5.96979,4.42217,2.35449,5.23476,0
2.36783,5.97922,4.4153,2.34456,5.23476,0
2.37282,5.9886,4.40835,2.33459,5.23476,0
2.37783,5.99792,4.40133,2.32457,5.23476,0
2.38286,6.00718,4.39424,2.31451,5.23476,0
2.38791,6.01639,4.38707,2.3044,5.23476,0
2.39299,6.02556,4.37983,2.29424,5.23476,0
2.3981,6.03467,4.37251,2.28403,5.23476,0
2.40323,6.04373,4.36511,2.27376,5.23476,0
2.40839,6.05274,4.35764,2.26344,5.23476,0
2.41358,6.06171,4.35009,2.25306,5.23476,0
2.4188,6.07063,4.34247,2.24262,5.23476,0
2.42405,6.07951,4.33476,2.23211,5.23476,0
2.42934,6.08835,4.32699,2.22154,5.23476,0
2.43466,6.09715,4.31913,2.21089,5.23476,0
2.44002,6.1059,4.31119,2.20018,5.23476,0
2.44542,6.11462,4.30318,2.18939,5.23476,0
2.45085,6.1233,4.29509,2.17852,5.23476,0
2.45632,6.13195,4.28692,2.16757,5.23476,0
2.46184,6.14056,4.27867,2.15654,5.23476,0
2.4674,6.14913,4.27034,2.14543,5.23476,0
2.473,6.15767,4.26194,2.13422,5.23476,0
2.47864,6.16619,4.25345,2.12293,5.23476,0
2.48434,6.17467,4.24488,2.11154,5.23476,0
2.49008,6.18313,4.23623,2.10005,5.23476,0
2.49588,6.19155,4.2275,2.08846,5.23476,0
2.50172,6.19996,4.21869,2.07677,5.23476,0
2.50762,6.20833,4.2098,2.06497,5.23476,0
2.51358,6.21669,4.20082,2.05306,5.23476,0
2.51959,6.22502,4.19177,2.04104,5.23476,0
2.52566,6.23333,4.18263,2.0289,5.23476,0
2.53179,6.24162,4.17341,2.01664,5.23476,0
2.53798,6.2499,4.1641,2.00425,5.23476,0
2.54424,6.25816,4.15471,1.99173,5.23476,0
2.55057,6.2664,4.14524,1.97909,5.23476,0
2.55696,6.27463,4.13569,1.9663,5.23476,0
2.56342,6.28284,4.12605,1.95338,5.23476,0
2.56996,6.29104,4.11632,1.94031,5.23476,0
2.57656,6.29924,4.10651,1.92709,5.23476,0
2.58325,6.30742,4.09662,1.91372,5.23476,0
2.59002,6.31559,4.08664,1.90019,5.23476,0
2.59686,6.32376,4.07657,1.88649,5.23476,0
2.60379,6.33193,4.06642,1.87263,5.23476,0
2.61081,6.34008,4.05618,1.8586,5.23476,0
2.61792,6.34824,4.04586,1.84439,5.23476,0
2.62512,6.3564,4.03545,1.82999,5.23476,0
2.63241,6.36455,4.02495,1.8154,5.23476,0
2.6398,6.37271,4.01436,1.80062,5.23476,0
2.64729,6.38086,4.00369,1.78563,5.23476,0
2.65489,6.38903,3.99292,1.77044,5.23476,0
2.66259,6.39719,3.98207,1.75503,5.23476,0
2.67041,6.40536,3.97113,1.7394,5.23476,0
2.67834,6.41355,3.9601,1.72354,5.23476,0
2.68639,6.42173,3.94899,1.70744,5.23476,0
2.69456,6.42993,3.93778,1.6911,5.23476,0
2.70286,6.43814,3.92648,1.6745,5.23476,0
2.71129,6.44637,3.91509,1.65764,5.23476,0
2.71986,6.4546,3.90361,1.6405,5.23476,0
2.72857,6.46285,3.89204,1.62308,5.23476,0
2.73742,6.47112,3.88038,1.60537,5.23476,0
2.74643,6.47941,3.86863,1.58736,5.23476,0
2.7556,6.48771,3.85679,1.56902,5.23476,0
2.76493,6.49604,3.84485,1.55036,5.23476,0
2.77443,6.50438,3.83282,1.53136,5.23476,0
2.78411,6.51275,3.8207,1.512,5.23476,0
2.79398,6.52115,3.80848,1.49227,5.23476,0
2.80404,6.52956,3.79618,1.47215,5.23476,0
2.8143,6.53801,3.78377,1.45162,5.23476,0
2.82478,6.54648,3.77128,1.43067,5.23476,0
2.83547,6.55499,3.75869,1.40927,5.23476,0
2.84641,6.56352,3.746,1.3874,5.23476,0
2.85759,6.57208,3.73322,1.36505,5.23476,0
2.86902,6.58068,3.72035,1.34217,5.23476,0
2.88073,6.58931,3.70738,1.31875,5.23476,0
2.89273,6.59798,3.69431,1.29476,5.23476,0
2.90504,6.60668,3.68115,1.27015,5.23476,0
2.91766,6.61542,3.66789,1.24489,5.23476,0
2.93064,6.62421,3.65454,1.21894,5.23476,0
2.94398,6.63303,3.64109,1.19226,5.23476,0
2.95772,6.64189,3.62754,1.16478,5.23476,0
2.97188,6.6508,3.61389,1.13645,5.23476,0
2.98651,6.65975,3.60015,1.10721,5.23476,0
3.00162,6.66875,3.5863,1.07697,5.23476,0
3.01728,6.6778,3.57236,1.04566,5.23476,0
3.03353,6.68689,3.55832,1.01316,5.23476,0
3.05043,6.69603,3.54418,0.979355,5.23476,0
3.06805,6.70523,3.52995,0.944109,5.23476,0
3.08649,6.71447,3.51561,0.907247,5.23476,0
3.10583,6.72377,3.50117,0.868563,5.23476,0
3.12621,6.73313,3.48663,0.827798,5.23476,0
3.1478,6.74254,3.47199,0.784627,5.23476,0
3.1708,6.752,3.45725,0.738624,5.23476,0
3.1955,6.76153,3.44241,0.689218,5.23476,0
3.2223,6.77111,3.42747,0.635618,5.23476,0
3.25179,6.78076,3.41242,0.576647,5.23476,0
3.28489,6.79047,3.39728,0.510447,5.23476,0
3.32325,6.80024,3.38203,0.433712,5.23476,0
3.37042,6.81008,3.36668,0.33937,5.23476,0
3.43795,6.81999,3.35122,0.20432,5.23476,0
3.54011,6.82996,3.33566,0,5.23476,0
