time,x_pos,y_pos,velocity,rotation,action
0,1.78,4.42,0,3.14159,0
0.124028,1.78311,4.43111,0.186042,3.14159,0
0.174891,1.78646,4.44201,0.262336,3.14159,0
0.2136,1.79005,4.4527,0.3204,3.14159,0
0.24598,1.79387,4.46319,0.36897,3.14159,0
0.274304,1.79793,4.47347,0.411457,3.14159,0
0.299747,1.80223,4.48355,0.44962,3.14159,0
0.323007,1.80675,4.49342,0.484511,3.14159,0
0.344543,1.8115,4.5031,0.516814,3.14159,0
0.364675,1.81648,4.51258,0.547013,3.14159,0
0.383643,1.82169,4.52187,0.575464,3.14159,0
0.401626,1.82712,4.53096,0.602439,3.14159,0
0.418763,1.83277,4.53986,0.628144,3.14159,0
0.435166,1.83865,4.54857,0.652749,3.14159,0
0.450931,1.84474,4.55709,0.676396,3.14159,0
0.466132,1.85105,4.56543,0.699198,3.14159,0
0.480837,1.85758,4.57358,0.721255,3.14159,0
0.495097,1.86432,4.58155,0.742645,3.14159,0
0.508961,1.87128,4.58933,0.763442,3.14159,0
0.522473,1.87844,4.59694,0.783709,3.14159,0
0.535666,1.88582,4.60438,0.803498,3.14159,0
0.548571,1.8934,4.61163,0.822857,3.14159,0
0.561218,1.90118,4.61872,0.841828,3.14159,0
0.573632,1.90918,4.62563,0.860448,3.14159,0
0.585835,1.91737,4.63237,0.878753,3.14159,0
0.597846,1.92576,4.63895,0.896769,3.14159,0
0.609681,1.93436,4.64535,0.914522,3.14159,0
0.62136,1.94315,4.6516,0.93204,3.14159,0
0.632895,1.95213,4.65768,0.949342,3.14159,0
0.644299,1.96131,4.6636,0.966449,3.14159,0
0.655584,1.97069,4.66936,0.983377,3.14159,0
0.66676,1.98025,4.67497,1.00014,3.14159,0
0.677839,1.99,4.68042,1.01676,3.14159,0
0.688826,1.99994,4.68572,1.03324,3.14159,0
0.699731,2.01006,4.69086,1.0496,3.14159,0
0.71056,2.02037,4.69586,1.06584,3.14159,0
0.721321,2.03086,4.70071,1.08198,3.14159,0
0.732018,2.04153,4.70541,1.09803,3.14159,0
0.742658,2.05238,4.70997,1.11399,3.14159,0
0.753244,2.0634,4.71439,1.12987,3.14159,0
0.763782,2.0746,4.71866,1.14567,3.14159,0
0.774274,2.08598,4.7228,1.16141,3.14159,0
0.784724,2.09752,4.7268,1.17709,3.14159,0
0.795137,2.10924,4.73067,1.19271,3.14159,0
0.805513,2.12112,4.7344,1.20827,3.14159,0
0.815857,2.13317,4.738,1.22379,3.14159,0
0.82617,2.14539,4.74148,1.23925,3.14159,0
0.836454,2.15777,4.74482,1.25468,3.14159,0
0.84671,2.17031,4.74804,1.27007,3.14159,0
0.856941,2.18301,4.75113,1.28541,3.14159,0
0.867149,2.19587,4.75411,1.30072,3.14159,0
0.877334,2.20889,4.75696,1.316,3.14159,0
0.887497,2.22206,4.7597,1.33124,3.14159,0
0.897639,2.23538,4.76231,1.34646,3.14159,0
0.907761,2.24886,4.76482,1.36164,3.14159,0
0.917865,2.26249,4.76721,1.3768,3.14159,0
0.92795,2.27626,4.76949,1.39192,3.14159,0
0.938016,2.29018,4.77166,1.40702,3.14159,0
0.948066,2.30424,4.77372,1.4221,3.14159,0
0.958098,2.31845,4.77568,1.43715,3.14159,0
0.968113,2.3328,4.77753,1.45217,3.14159,0
0.978112,2.34729,4.77928,1.46717,3.14159,0
0.988093,2.36192,4.78094,1.48214,3.14159,0
0.998059,2.37668,4.78249,1.49709,3.14159,0
1.00801,2.39158,4.78395,1.51201,3.14159,0
1.01794,2.40661,4.78531,1.52691,3.14159,0
1.02786,2.42177,4.78658,1.54178,3.14159,0
1.03776,2.43706,4.78776,1.55663,3.14159,0
1.04764,2.45248,4.78885,1.57146,3.14159,0
1.0575,2.46802,4.78985,1.58626,3.14159,0
1.06735,2.48369,4.79077,1.60103,3.14159,0
1.07719,2.49949,4.7916,1.61578,3.14159,0
1.087,2.5154,4.79236,1.6305,3.14159,0
1.0968,2.53143,4.79303,1.6452,3.14159,0
1.10658,2.54758,4.79362,1.65987,3.14159,0
1.11634,2.56385,4.79414,1.67451,3.14159,0
1.12608,2.58023,4.79459,1.68912,3.14159,0
1.13581,2.59672,4.79496,1.70371,3.14159,0
1.14551,2.61332,4.79526,1.71827,3.14159,0
1.1552,2.63003,4.79549,1.7328,3.14159,0
1.16486,2.64685,4.79565,1.7473,3.14159,0
1.17451,2.66378,4.79575,1.76177,3.14159,0
1.18414,2.68081,4.79579,1.77621,3.14159,0
1.19374,2.69794,4.79576,1.79062,3.14159,0
1.20333,2.71517,4.79568,1.80499,3.14159,0
1.21289,2.73251,4.79554,1.81934,3.14159,0
1.22244,2.74993,4.79534,1.83366,3.14159,0
1.23196,2.76746,4.79509,1.84794,3.14159,0
1.24146,2.78508,4.79478,1.86219,3.14159,0
1.25093,2.80279,4.79442,1.8764,3.14159,0
1.26039,2.82059,4.79402,1.89058,3.14159,0
1.26982,2.83848,4.79357,1.90473,3.14159,0
1.27922,2.85645,4.79307,1.91884,3.14159,0
1.28861,2.87452,4.79253,1.93291,3.14159,0
1.29797,2.89266,4.79195,1.94695,3.14159,0
1.3073,2.91089,4.79133,1.96095,3.14159,0
1.31661,2.9292,4.79067,1.97491,3.14159,0
1.32589,2.94759,4.78998,1.98884,3.14159,0
1.33515,2.96605,4.78925,2.00273,3.14159,0
1.34438,2.98459,4.78849,2.01658,3.14159,0
1.35359,3.0032,4.7877,2.03039,3.14159,0
1.36277,3.02189,4.78688,2.04416,3.14159,0
1.37192,3.04064,4.78604,2.05789,3.14159,0
1.38105,3.05946,4.78517,2.07158,3.14159,0
1.39015,3.07835,4.78427,2.08522,3.14159,0
1.39922,3.09731,4.78336,2.09883,3.14159,0
1.40826,3.11633,4.78243,2.11239,3.14159,0
1.41728,3.13541,4.78147,2.12592,3.14159,0
1.42626,3.15454,4.78051,2.1394,3.14159,0
1.43522,3.17374,4.77953,2.15283,3.14159,0
1.44415,3.193,4.77853,2.16622,3.14159,0
1.45305,3.21231,4.77753,2.17957,3.14159,0
1.46192,3.23167,4.77652,2.19287,3.14159,0
1.47075,3.25108,4.7755,2.20613,3.14159,0
1.47956,3.27055,4.77448,2.21934,3.14159,0
1.48834,3.29006,4.77345,2.23251,3.14159,0
1.49709,3.30962,4.77243,2.24563,3.14159,0
1.5058,3.32922,4.7714,2.25871,3.14159,0
1.51449,3.34887,4.77038,2.27173,3.14159,0
1.52314,3.36856,4.76936,2.28471,3.14159,0
1.53176,3.38828,4.76835,2.29765,3.14159,0
1.54035,3.40805,4.76734,2.31053,3.14159,0
1.54891,3.42785,4.76635,2.32337,3.14159,0
1.55744,3.44769,4.76537,2.33615,3.14159,0
1.56593,3.46756,4.7644,2.34889,3.14159,0
1.57439,3.48746,4.76345,2.36158,3.14159,0
1.58281,3.50739,4.76251,2.37422,3.14159,0
1.5912,3.52734,4.76159,2.38681,3.14159,0
1.59956,3.54733,4.7607,2.39934,3.14159,0
1.60789,3.56733,4.75983,2.41183,3.14159,0
1.61618,3.58736,4.75898,2.42427,3.14159,0
1.62444,3.60742,4.75816,2.43665,3.14159,0
1.63266,3.62749,4.75736,2.44899,3.14159,0
1.64085,3.64757,4.7566,2.46127,3.14159,0
1.649,3.66768,4.75587,2.4735,3.14159,0
1.65712,3.6878,4.75517,2.48568,3.14159,0
1.6652,3.70793,4.75451,2.4978,3.14159,0
1.67325,3.72807,4.75389,2.50988,3.14159,0
1.68126,3.74822,4.75331,2.5219,3.14159,0
1.68924,3.76838,4.75276,2.53386,3.14159,0
1.69718,3.78854,4.75226,2.54577,3.14159,0
1.70509,3.80871,4.75181,2.55763,3.14159,0
1.71296,3.82888,4.7514,2.56944,3.14159,0
1.72079,3.84905,4.75104,2.58119,3.14159,0
1.72859,3.86922,4.75073,2.59288,3.14159,0
1.73635,3.88939,4.75047,2.60453,3.14159,0
1.74411,3.90955,4.75027,2.6,3.14159,0
1.75186,3.92971,4.75012,2.6,3.14159,0
1.75961,3.94986,4.75003,2.6,3.14159,0
1.76736,3.97,4.75,2.6,3.14159,0
1.77933,4.00112,4.74998,2.6,5.91083,0
1.7912,4.03199,4.7499,2.6,5.91083,0
1.80297,4.06261,4.74977,2.6,5.91083,0
1.81465,4.09298,4.7496,2.6,5.91083,0
1.82624,4.1231,4.74938,2.6,5.91083,0
1.83773,4.15297,4.74911,2.6,5.91083,0
1.84912,4.18259,4.74879,2.6,5.91083,0
1.86042,4.21197,4.74842,2.6,5.91083,0
1.87163,4.24111,4.748,2.6,5.91083,0
1.88275,4.27,4.74754,2.6,5.91083,0
1.89377,4.29865,4.74703,2.6,5.91083,0
1.9047,4.32707,4.74647,2.6,5.91083,0
1.91554,4.35524,4.74587,2.6,5.91083,0
1.92629,4.38318,4.74522,2.6,5.91083,0
1.93694,4.41089,4.74453,2.6,5.91083,0
1.94751,4.43836,4.74379,2.6,5.91083,0
1.95799,4.46559,4.743,2.6,5.91083,0
1.96838,4.4926,4.74217,2.6,5.91083,0
1.97869,4.51937,4.7413,2.6,5.91083,0
1.98891,4.54592,4.74038,2.6,5.91083,0
1.99904,4.57224,4.73942,2.6,5.91083,0
2.00908,4.59834,4.73842,2.6,5.91083,0
2.01904,4.62421,4.73737,2.6,5.91083,0
2.02891,4.64985,4.73628,2.6,5.91083,0
2.0387,4.67528,4.73515,2.6,5.91083,0
2.0484,4.70049,4.73398,2.6,5.91083,0
2.05805,4.72547,4.73276,2.58553,5.91083,0
2.06767,4.75024,4.7315,2.5711,5.91083,0
2.07726,4.7748,4.73021,2.55671,5.91083,0
2.08682,4.79914,4.72887,2.54237,5.91083,0
2.09636,4.82326,4.72749,2.52807,5.91083,0
2.10586,4.84717,4.72607,2.51382,5.91083,0
2.11533,4.87088,4.72461,2.49961,5.91083,0
2.12478,4.89437,4.72312,2.48544,5.91083,0
2.13419,4.91766,4.72158,2.47132,5.91083,0
2.14358,4.94074,4.72001,2.45724,5.91083,0
2.15294,4.96361,4.71839,2.4432,5.91083,0
2.16227,4.98628,4.71674,2.4292,5.91083,0
2.17157,5.00875,4.71506,2.41525,5.91083,0
2.18085,5.03102,4.71333,2.40134,5.91083,0
2.19009,5.05309,4.71157,2.38747,5.91083,0
2.19931,5.07496,4.70977,2.37364,5.91083,0
2.2085,5.09663,4.70794,2.35986,5.91083,0
2.21766,5.11811,4.70607,2.34612,5.91083,0
2.2268,5.13939,4.70416,2.33241,5.91083,0
2.2359,5.16048,4.70222,2.31875,5.91083,0
2.24498,5.18138,4.70024,2.30513,5.91083,0
2.25404,5.20209,4.69823,2.29155,5.91083,0
2.26306,5.22261,4.69619,2.27801,5.91083,0
2.27206,5.24295,4.69411,2.26451,5.91083,0
2.28103,5.26309,4.692,2.25106,5.91083,0
2.28998,5.28306,4.68985,2.23764,5.91083,0
2.2989,5.30284,4.68768,2.22426,5.91083,0
2.3078,5.32244,4.68546,2.21092,5.91083,0
2.31666,5.34185,4.68322,2.19761,5.91083,0
2.32551,5.36109,4.68095,2.18435,5.91083,0
2.33432,5.38016,4.67864,2.17112,5.91083,0
2.34311,5.39904,4.67631,2.15794,5.91083,0
2.35188,5.41775,4.67394,2.14479,5.91083,0
2.36062,5.43629,4.67154,2.13167,5.91083,0
2.36934,5.45466,4.66911,2.1186,5.91083,0
2.37803,5.47285,4.66666,2.10556,5.91083,0
2.3867,5.49088,4.66417,2.09255,5.91083,0
2.39535,5.50873,4.66165,2.07959,5.91083,0
2.40397,5.52643,4.65911,2.06666,5.91083,0
2.41257,5.54395,4.65653,2.05376,5.91083,0
2.42114,5.56131,4.65393,2.0409,5.91083,0
2.42969,5.57851,4.6513,2.02807,5.91083,0
2.43822,5.59555,4.64865,2.01527,5.91083,0
2.44668,5.61243,4.64596,2.02795,5.91083,0
2.45506,5.62915,4.64325,2.01538,5.91083,0
2.46341,5.64572,4.64051,2.00285,5.91083,0
2.47175,5.66212,4.63775,1.99035,5.91083,0
2.48006,5.67838,4.63496,1.97788,5.91083,0
2.48835,5.69448,4.63215,1.96545,5.91083,0
2.49662,5.71043,4.62931,1.95304,5.91083,0
2.50486,5.72623,4.62645,1.94067,5.91083,0
2.51309,5.74188,4.62356,1.92833,5.91083,0
2.5213,5.75738,4.62065,1.91602,5.91083,0
2.52949,5.77274,4.61771,1.90374,5.91083,0
2.53765,5.78795,4.61475,1.89149,5.91083,0
2.5458,5.80302,4.61177,1.87927,5.91083,0
2.55393,5.81795,4.60876,1.86707,5.91083,0
2.56204,5.83274,4.60574,1.85491,5.91083,0
2.57013,5.84739,4.60269,1.84277,5.91083,0
2.57821,5.8619,4.59962,1.83066,5.91083,0
2.58627,5.87627,4.59652,1.81857,5.91083,0
2.59431,5.89051,4.59341,1.80651,5.91083,0
2.60234,5.90462,4.59028,1.79447,5.91083,0
2.61035,5.91859,4.58712,1.78245,5.91083,0
2.61834,5.93244,4.58395,1.77046,5.91083,0
2.62632,5.94615,4.58075,1.75849,5.91083,0
2.63429,5.95974,4.57754,1.74654,5.91083,0
2.64224,5.9732,4.57431,1.73461,5.91083,0
2.65018,5.98653,4.57106,1.7227,5.91083,0
2.65811,5.99974,4.56779,1.71081,5.91083,0
2.66602,6.01283,4.5645,1.69894,5.91083,0
2.67392,6.02579,4.5612,1.68708,5.91083,0
2.68182,6.03864,4.55787,1.67525,5.91083,0
2.6897,6.05137,4.55453,1.66342,5.91083,0
2.69757,6.06398,4.55118,1.65161,5.91083,0
2.70544,6.07647,4.54781,1.63982,5.91083,0
2.71329,6.08885,4.54442,1.62803,5.91083,0
2.72114,6.10112,4.54102,1.61626,5.91083,0
2.72898,6.11328,4.5376,1.6045,5.91083,0
2.73682,6.12532,4.53416,1.59274,5.91083,0
2.74465,6.13726,4.53071,1.581,5.91083,0
2.75247,6.14909,4.52725,1.56926,5.91083,0
2.76029,6.16082,4.52378,1.55753,5.91083,0
2.76811,6.17243,4.52029,1.5458,5.91083,0
2.77593,6.18395,4.51678,1.53408,5.91083,0
2.78374,6.19536,4.51327,1.52235,5.91083,0
2.79156,6.20668,4.50974,1.51063,5.91083,0
2.79937,6.21789,4.5062,1.49891,5.91083,0
2.80719,6.22901,4.50264,1.48718,5.91083,0
2.81501,6.24003,4.49908,1.47545,5.91083,0
2.82283,6.25095,4.4955,1.46372,5.91083,0
2.83066,6.26178,4.49192,1.45198,5.91083,0
2.83849,6.27252,4.48832,1.44023,5.91083,0
2.84633,6.28317,4.48471,1.42848,5.91083,0
2.85417,6.29373,4.48109,1.41671,5.91083,0
2.86203,6.3042,4.47747,1.40493,5.91083,0
2.86989,6.31458,4.47383,1.39313,5.91083,0
2.87777,6.32488,4.47019,1.38132,5.91083,0
2.88565,6.3351,4.46653,1.36949,5.91083,0
2.89355,6.34523,4.46287,1.35764,5.91083,0
2.90147,6.35528,4.4592,1.34577,5.91083,0
2.9094,6.36525,4.45553,1.33387,5.91083,0
2.91735,6.37514,4.45184,1.32195,5.91083,0
2.92532,6.38495,4.44815,1.31,5.91083,0
2.93331,6.39469,4.44445,1.29801,5.91083,0
2.94132,6.40436,4.44075,1.286,5.91083,0
2.94935,6.41395,4.43704,1.27395,5.91083,0
2.95741,6.42347,4.43333,1.26186,5.91083,0
2.9655,6.43291,4.42961,1.24973,5.91083,0
2.97361,6.4423,4.42588,1.23755,5.91083,0
2.98176,6.45161,4.42215,1.22533,5.91083,0
2.98994,6.46085,4.41842,1.21307,5.91083,0
2.99815,6.47004,4.41468,1.20075,5.91083,0
3.0064,6.47915,4.41094,1.18837,5.91083,0
3.01469,6.48821,4.4072,1.17594,5.91083,0
3.02302,6.49721,4.40345,1.16344,5.91083,0
3.03139,6.50614,4.3997,1.15088,5.91083,0
3.03982,6.51502,4.39595,1.13825,5.91083,0
3.04829,6.52384,4.3922,1.12554,5.91083,0
3.05681,6.53261,4.38844,1.11276,5.91083,0
3.06538,6.54132,4.38469,1.0999,5.91083,0
3.07402,6.54998,4.38093,1.08695,5.91083,0
3.08271,6.55859,4.37717,1.07391,5.91083,0
3.09147,6.56715,4.37341,1.06077,5.91083,0
3.10029,6.57566,4.36966,1.04753,5.91083,0
3.10919,6.58413,4.3659,1.03418,5.91083,0
3.11816,6.59254,4.36215,1.02073,5.91083,0
3.12721,6.60092,4.35839,1.00715,5.91083,0
3.13635,6.60925,4.35464,0.993448,5.91083,0
3.14557,6.61754,4.35089,0.979613,5.91083,0
3.15489,6.62579,4.34714,0.965639,5.91083,0
3.1643,6.634,4.3434,0.951514,5.91083,0
3.17382,6.64218,4.33965,0.937235,5.91083,0
3.18345,6.65031,4.33591,0.922789,5.91083,0
3.1932,6.65842,4.33218,0.908168,5.91083,0
3.20307,6.66649,4.32845,0.893362,5.91083,0
3.21308,6.67453,4.32472,0.878358,5.91083,0
3.22322,6.68254,4.321,0.863144,5.91083,0
3.23351,6.69052,4.31728,0.847707,5.91083,0
3.24396,6.69847,4.31357,0.832034,5.91083,0
3.25457,6.70639,4.30986,0.816109,5.91083,0
3.26537,6.71429,4.30616,0.799913,5.91083,0
3.27636,6.72217,4.30246,0.783427,5.91083,0
3.28756,6.73002,4.29877,0.766633,5.91083,0
3.29898,6.73786,4.29509,0.749506,5.91083,0
3.31063,6.74567,4.29142,0.73202,5.91083,0
3.32255,6.75347,4.28775,0.714148,5.91083,0
3.33474,6.76125,4.2841,0.695857,5.91083,0
3.34724,6.76901,4.28045,0.677111,5.91083,0
3.36007,6.77676,4.2768,0.657867,5.91083,0
3.37326,6.7845,4.27317,0.638079,5.91083,0
3.38685,6.79223,4.26955,0.617692,5.91083,0
3.40089,6.79995,4.26594,0.596642,5.91083,0
3.41541,6.80765,4.26233,0.57485,5.91083,0
3.43049,6.81536,4.25874,0.552231,5.91083,0
3.4462,6.82305,4.25516,0.528671,5.91083,0
3.46262,6.83074,4.25159,0.504037,5.91083,0
3.47988,6.83843,4.24803,0.478158,5.91083,0
3.4981,6.84612,4.24448,0.450817,5.91083,0
3.5175,6.85381,4.24094,0.421725,5.91083,0
3.53832,6.86149,4.23742,0.390488,5.91083,0
3.56096,6.86918,4.23391,0.356536,5.91083,0
3.58598,6.87688,4.23041,0.318999,5.91083,0
3.61437,6.88458,4.22693,0.27642,5.91083,0
3.64802,6.89229,4.22346,0,5.91083,0
