time,x_pos,y_pos,velocity,rotation,action
0,1.67,4.94,0,3.14159,0
0.16189,1.68955,4.93792,0.242835,3.14159,0
0.228438,1.70891,4.93574,0.342658,3.14159,0
0.279161,1.72808,4.93348,0.418741,3.14159,0
0.321641,1.74708,4.93112,0.482461,3.14159,0
0.358822,1.7659,4.92868,0.538234,3.14159,0
0.392222,1.78454,4.92616,0.588333,3.14159,0
0.42274,1.80301,4.92355,0.634111,3.14159,0
0.450968,1.82131,4.92085,0.676451,3.14159,0
0.477315,1.83944,4.91808,0.715972,3.14159,0
0.502082,1.85741,4.91522,0.753123,3.14159,0
0.525496,1.87521,4.91229,0.788244,3.14159,0
0.547734,1.89286,4.90928,0.821602,3.14159,0
0.568938,1.91035,4.9062,0.853407,3.14159,0
0.589222,1.92768,4.90304,0.883833,3.14159,0
0.608682,1.94486,4.89981,0.913022,3.14159,0
0.627396,1.96189,4.8965,0.941094,3.14159,0
0.645434,1.97878,4.89313,0.968151,3.14159,0
0.662853,1.99552,4.88969,0.994279,3.14159,0
0.679703,2.01212,4.88618,1.01955,3.14159,0
0.696028,2.02858,4.88261,1.04404,3.14159,0
0.711867,2.04491,4.87897,1.0678,3.14159,0
0.727255,2.0611,4.87527,1.09088,3.14159,0
0.742221,2.07716,4.8715,1.11333,3.14159,0
0.756793,2.09309,4.86768,1.13519,3.14159,0
0.770997,2.10889,4.8638,1.15649,3.14159,0
0.784853,2.12458,4.85987,1.17728,3.14159,0
0.798382,2.14014,4.85588,1.19757,3.14159,0
0.811603,2.15558,4.85183,1.2174,3.14159,0
0.824533,2.17091,4.84773,1.2368,3.14159,0
0.837187,2.18612,4.84358,1.25578,3.14159,0
0.849579,2.20123,4.83938,1.27437,3.14159,0
0.861724,2.21622,4.83513,1.29259,3.14159,0
0.873632,2.23112,4.83084,1.31045,3.14159,0
0.885315,2.2459,4.8265,1.32797,3.14159,0
0.896784,2.26059,4.82212,1.34518,3.14159,0
0.908049,2.27519,4.81769,1.36207,3.14159,0
0.919119,2.28968,4.81323,1.37868,3.14159,0
0.930002,2.30409,4.80872,1.395,3.14159,0
0.940708,2.31841,4.80417,1.41106,3.14159,0
0.951242,2.33263,4.79959,1.42686,3.14159,0
0.961614,2.34678,4.79498,1.44242,3.14159,0
0.971828,2.36084,4.79033,1.45774,3.14159,0
0.981892,2.37483,4.78565,1.47284,3.14159,0
0.991813,2.38873,4.78093,1.48772,3.14159,0
1.00159,2.40257,4.77619,1.50239,3.14159,0
1.01124,2.41633,4.77142,1.51686,3.14159,0
1.02076,2.43002,4.76662,1.53115,3.14159,0
1.03016,2.44365,4.7618,1.54524,3.14159,0
1.03944,2.45722,4.75695,1.55916,3.14159,0
1.04861,2.47072,4.75208,1.57291,3.14159,0
1.05766,2.48417,4.74719,1.5865,3.14159,0
1.06662,2.49756,4.74229,1.59992,3.14159,0
1.07547,2.51089,4.73736,1.6132,3.14159,0
1.08422,2.52418,4.73242,1.62633,3.14159,0
1.09288,2.53742,4.72746,1.63931,3.14159,0
1.10144,2.55061,4.72249,1.65216,3.14159,0
1.10992,2.56376,4.7175,1.66488,3.14159,0
1.11832,2.57687,4.71251,1.67748,3.14159,0
1.12663,2.58995,4.7075,1.68995,3.14159,0
1.13487,2.60298,4.70249,1.7023,3.14159,0
1.14303,2.61599,4.69747,1.71454,3.14159,0
1.15111,2.62897,4.69245,1.72667,3.14159,0
1.15913,2.64192,4.68742,1.7387,3.14159,0
1.16708,2.65484,4.6824,1.75062,3.14159,0
1.17497,2.66775,4.67737,1.76245,3.14159,0
1.18279,2.68063,4.67234,1.77418,3.14159,0
1.19055,2.6935,4.66731,1.78582,3.14159,0
1.19825,2.70635,4.66229,1.79738,3.14159,0
1.2059,2.7192,4.65727,1.80885,3.14159,0
1.21349,2.73203,4.65226,1.82024,3.14159,0
1.22103,2.74486,4.64726,1.83155,3.14159,0
1.22852,2.75768,4.64226,1.84278,3.14159,0
1.23596,2.77051,4.63728,1.85395,3.14159,0
1.24336,2.78333,4.63231,1.86504,3.14159,0
1.25071,2.79616,4.62735,1.87607,3.14159,0
1.25802,2.809,4.62241,1.88704,3.14159,0
1.26529,2.82184,4.61749,1.89794,3.14159,0
1.27252,2.8347,4.61258,1.90879,3.14159,0
1.27972,2.84757,4.6077,1.91958,3.14159,0
1.28687,2.86046,4.60283,1.93031,3.14159,0
1.294,2.87337,4.59799,1.941,3.14159,0
1.30109,2.8863,4.59317,1.95163,3.14159,0
1.30815,2.89926,4.58837,1.96222,3.14159,0
1.31518,2.91224,4.5836,1.97277,3.14159,0
1.32218,2.92526,4.57886,1.98327,3.14159,0
1.32916,2.93831,4.57415,1.99374,3.14159,0
1.33611,2.95139,4.56947,2.00416,3.14159,0
1.34304,2.96451,4.56483,2.01455,3.14159,0
1.34994,2.97767,4.56022,2.02491,3.14159,0
1.35683,2.99088,4.55564,2.03524,3.14159,0
1.36369,3.00413,4.5511,2.04554,3.14159,0
1.37054,3.01743,4.5466,2.05581,3.14159,0
1.37737,3.03078,4.54213,2.06605,3.14159,0
1.38418,3.04419,4.53771,2.07628,3.14159,0
1.39098,3.05765,4.53333,2.08648,3.14159,0
1.39777,3.07117,4.529,2.09666,3.14159,0
1.40455,3.08475,4.52471,2.10683,3.14159,0
1.41132,3.09839,4.52047,2.11697,3.14159,0
1.41807,3.11211,4.51627,2.12711,3.14159,0
1.42482,3.12589,4.51213,2.13724,3.14159,0
1.43157,3.13974,4.50804,2.14735,3.14159,0
1.4383,3.15367,4.504,2.15746,3.14159,0
1.44504,3.16768,4.50001,2.16756,3.14159,0
1.45177,3.18176,4.49608,2.17765,3.14159,0
1.4585,3.19593,4.49221,2.18775,3.14159,0
1.46523,3.21018,4.48839,2.19784,3.14159,0
1.47196,3.22452,4.48464,2.20793,3.14159,0
1.47869,3.23895,4.48094,2.21803,3.14159,0
1.48542,3.25348,4.47731,2.22813,3.14159,0
1.49216,3.26809,4.47374,2.23824,3.14159,0
1.4989,3.28281,4.47024,2.24835,3.14159,0
1.50565,3.29763,4.46681,2.25848,3.14159,0
1.51241,3.31255,4.46344,2.26861,3.14159,0
1.51917,3.32757,4.46015,2.27876,3.14159,0
1.52595,3.34271,4.45692,2.28893,3.14159,0
1.53274,3.35795,4.45377,2.29911,3.14159,0
1.53953,3.37331,4.45069,2.3093,3.14159,0
1.54635,3.38879,4.44769,2.31952,3.14159,0
1.55317,3.40438,4.44477,2.32976,3.14159,0
1.56001,3.4201,4.44192,2.34002,3.14159,0
1.56687,3.43594,4.43915,2.3503,3.14159,0
1.57374,3.4519,4.43647,2.36061,3.14159,0
1.58063,3.468,4.43387,2.37095,3.14159,0
1.58754,3.48423,4.43135,2.38132,3.14159,0
1.59448,3.50059,4.42892,2.39171,3.14159,0
1.60143,3.51709,4.42658,2.40214,3.14159,0
1.6084,3.53373,4.42432,2.4126,3.14159,0
1.6154,3.55051,4.42216,2.4231,3.14159,0
1.62242,3.56743,4.42008,2.43363,3.14159,0
1.62947,3.58451,4.4181,2.4442,3.14159,0
1.63654,3.60173,4.41622,2.45481,3.14159,0
1.64364,3.6191,4.41443,2.46546,3.14159,0
1.65077,3.63663,4.41273,2.47616,3.14159,0
1.65793,3.65432,4.41114,2.48689,3.14159,0
1.66511,3.67217,4.40965,2.49767,3.14159,0
1.67233,3.69019,4.40825,2.5085,3.14159,0
1.67958,3.70836,4.40696,2.51937,3.14159,0
1.68686,3.72671,4.40578,2.53029,3.14159,0
1.69418,3.74523,4.4047,2.54127,3.14159,0
1.70153,3.76392,4.40373,2.55229,3.14159,0
1.70891,3.78278,4.40287,2.56336,3.14159,0
1.71633,3.80183,4.40212,2.57449,3.14159,0
1.72379,3.82106,4.40147,2.58568,3.14159,0
1.73128,3.84047,4.40095,2.59692,3.14159,0
1.73881,3.86006,4.40054,2.60822,3.14159,0
1.74642,3.87985,4.40024,2.6,3.14159,0
1.75411,3.89983,4.40006,2.6,3.14159,0
1.76186,3.92,4.4,2.6,3.14159,0
1.7725,3.94765,4.39999,2.6,5.23476,0
1.78304,3.97506,4.39996,2.6,5.23476,0
1.79349,4.00223,4.3999,2.6,5.23476,0
1.80384,4.02915,4.39983,2.6,5.23476,0
1.8141,4.05583,4.39973,2.6,5.23476,0
1.82427,4.08226,4.3996,2.6,5.23476,0
1.83435,4.10847,4.39946,2.6,5.23476,0
1.84434,4.13443,4.39929,2.6,5.23476,0
1.85423,4.16016,4.39909,2.6,5.23476,0
1.86404,4.18565,4.39887,2.6,5.23476,0
1.87376,4.21092,4.39862,2.6,5.23476,0
1.88339,4.23595,4.39835,2.6,5.23476,0
1.89293,4.26075,4.39805,2.6,5.23476,0
1.90238,4.28533,4.39772,2.6,5.23476,0
1.91175,4.30968,4.39736,2.6,5.23476,0
1.92103,4.33381,4.39698,2.6,5.23476,0
1.93022,4.35771,4.39656,2.6,5.23476,0
1.93933,4.38139,4.39612,2.6,5.23476,0
1.94836,4.40485,4.39564,2.6,5.23476,0
1.9573,4.4281,4.39514,2.6,5.23476,0
1.96616,4.45112,4.39461,2.6,5.23476,0
1.97493,4.47394,4.39404,2.6,5.23476,0
1.98363,4.49654,4.39344,2.6,5.23476,0
1.99224,4.51892,4.39281,2.6,5.23476,0
2.00078,4.5411,4.39214,2.6,5.23476,0
2.00923,4.56307,4.39144,2.6,5.23476,0
2.0176,4.58483,4.39071,2.6,5.23476,0
2.0259,4.60638,4.38995,2.6,5.23476,0
2.03412,4.62773,4.38914,2.6,5.23476,0
2.04226,4.64888,4.38831,2.6,5.23476,0
2.05032,4.66983,4.38743,2.6,5.23476,0
2.05831,4.69057,4.38652,2.6,5.23476,0
2.06622,4.71112,4.38557,2.6,5.23476,0
2.07406,4.73147,4.38459,2.6,5.23476,0
2.08182,4.75163,4.38356,2.6,5.23476,0
2.08951,4.7716,4.3825,2.6,5.23476,0
2.09713,4.79137,4.3814,2.6,5.23476,0
2.10467,4.81095,4.38026,2.6,5.23476,0
2.11214,4.83035,4.37907,2.6,5.23476,0
2.11954,4.84955,4.37785,2.6,5.23476,0
2.12688,4.86858,4.37659,2.6,5.23476,0
2.13414,4.88741,4.37528,2.6,5.23476,0
2.14133,4.90607,4.37394,2.6,5.23476,0
2.14846,4.92454,4.37255,2.6,5.23476,0
2.15552,4.94284,4.37111,2.6,5.23476,0
2.16251,4.96095,4.36964,2.6,5.23476,0
2.16943,4.97889,4.36811,2.6,5.23476,0
2.17629,4.99666,4.36655,2.6,5.23476,0
2.18309,5.01425,4.36494,2.6,5.23476,0
2.18982,5.03167,4.36328,2.6,5.23476,0
2.1965,5.04892,4.36157,2.58998,5.23476,0
2.20314,5.06601,4.35982,2.58002,5.23476,0
2.20975,5.08292,4.35803,2.57011,5.23476,0
2.21632,5.09967,4.35618,2.56025,5.23476,0
2.22285,5.11626,4.35429,2.55045,5.23476,0
2.22935,5.13268,4.35234,2.54071,5.23476,0
2.23581,5.14895,4.35035,2.53101,5.23476,0
2.24223,5.16505,4.34831,2.52138,5.23476,0
2.24862,5.181,4.34622,2.51179,5.23476,0
2.25498,5.19679,4.34407,2.50226,5.23476,0
2.2613,5.21242,4.34188,2.49277,5.23476,0
2.26759,5.22791,4.33963,2.48334,5.23476,0
2.27385,5.24324,4.33733,2.47396,5.23476,0
2.28007,5.25842,4.33498,2.46463,5.23476,0
2.28626,5.27345,4.33257,2.45534,5.23476,0
2.29241,5.28834,4.33011,2.44611,5.23476,0
2.29854,5.30308,4.3276,2.43692,5.23476,0
2.30463,5.31768,4.32503,2.42778,5.23476,0
2.3107,5.33214,4.32241,2.41868,5.23476,0
2.31673,5.34645,4.31973,2.40963,5.23476,0
2.32273,5.36063,4.31699,2.40063,5.23476,0
2.3287,5.37467,4.3142,2.39167,5.23476,0
2.33465,5.38857,4.31135,2.38275,5.23476,0
2.34057,5.40234,4.30844,2.37388,5.23476,0
2.34646,5.41597,4.30547,2.36504,5.23476,0
2.35232,5.42948,4.30244,2.35625,5.23476,0
2.35816,5.44285,4.29936,2.34749,5.23476,0
2.36397,5.4561,4.29621,2.33878,5.23476,0
2.36975,5.46922,4.293,2.3301,5.23476,0
2.37551,5.48221,4.28973,2.32146,5.23476,0
2.38125,5.49509,4.2864,2.31285,5.23476,0
2.38697,5.50784,4.28301,2.30428,5.23476,0
2.39266,5.52047,4.27956,2.29574,5.23476,0
2.39833,5.53298,4.27604,2.28723,5.23476,0
2.40398,5.54537,4.27246,2.27876,5.23476,0
2.40961,5.55765,4.26882,2.27031,5.23476,0
2.41522,5.56981,4.26511,2.26189,5.23476,0
2.42082,5.58186,4.26133,2.2535,5.23476,0
2.42639,5.5938,4.25749,2.24514,5.23476,0
2.43195,5.60563,4.25359,2.2368,5.23476,0
2.4375,5.61736,4.24961,2.22848,5.23476,0
2.44302,5.62897,4.24557,2.22019,5.23476,0
2.44854,5.64048,4.24146,2.21192,5.23476,0
2.45404,5.65189,4.23729,2.20366,5.23476,0
2.45953,5.6632,4.23304,2.19543,5.23476,0
2.46501,5.6744,4.22873,2.18721,5.23476,0
2.47048,5.68551,4.22435,2.179,5.23476,0
2.47594,5.69652,4.21989,2.17081,5.23476,0
2.4814,5.70743,4.21537,2.16263,5.23476,0
2.48684,5.71826,4.21077,2.15446,5.23476,0
2.49228,5.72898,4.20611,2.1463,5.23476,0
2.49772,5.73962,4.20137,2.13815,5.23476,0
2.50315,5.75017,4.19656,2.13,5.23476,0
2.50858,5.76063,4.19167,2.12185,5.23476,0
2.51401,5.771,4.18671,2.11371,5.23476,0
2.51944,5.78129,4.18168,2.10556,5.23476,0
2.52487,5.7915,4.17657,2.09742,5.23476,0
2.53031,5.80162,4.17139,2.08927,5.23476,0
2.53574,5.81167,4.16613,2.08111,5.23476,0
2.54119,5.82164,4.16079,2.07295,5.23476,0
2.54664,5.83152,4.15538,2.06477,5.23476,0
2.55209,5.84134,4.14989,2.05659,5.23476,0
2.55756,5.85108,4.14432,2.04839,5.23476,0
2.56304,5.86075,4.13868,2.04017,5.23476,0
2.56852,5.87034,4.13295,2.03194,5.23476,0
2.57403,5.87987,4.12715,2.02369,5.23476,0
2.57954,5.88933,4.12126,2.01541,5.23476,0
2.58507,5.89873,4.1153,2.00711,5.23476,0
2.59063,5.90806,4.10925,1.99879,5.23476,0
2.59619,5.91732,4.10313,1.99043,5.23476,0
2.60178,5.92653,4.09692,1.98205,5.23476,0
2.6074,5.93568,4.09063,1.97363,5.23476,0
2.61303,5.94476,4.08425,1.96518,5.23476,0
2.61869,5.95379,4.0778,1.95668,5.23476,0
2.62438,5.96277,4.07126,1.94815,5.23476,0
2.6301,5.97169,4.06463,1.93958,5.23476,0
2.63585,5.98056,4.05792,1.93095,5.23476,0
2.64163,5.98938,4.05113,1.92229,5.23476,0
2.64744,5.99815,4.04424,1.91357,5.23476,0
2.65329,6.00687,4.03728,1.9048,5.23476,0
2.65917,6.01555,4.03022,1.89597,5.23476,0
2.66509,6.02418,4.02308,1.88708,5.23476,0
2.67106,6.03277,4.01585,1.87814,5.23476,0
2.67707,6.04132,4.00853,1.86913,5.23476,0
2.68312,6.04983,4.00112,1.86005,5.23476,0
2.68921,6.0583,3.99362,1.85091,5.23476,0
2.69536,6.06674,3.98604,1.84169,5.23476,0
2.70155,6.07514,3.97836,1.8324,5.23476,0
2.7078,6.0835,3.97059,1.82303,5.23476,0
2.7141,6.09184,3.96273,1.81358,5.23476,0
2.72046,6.10014,3.95478,1.80404,5.23476,0
2.72687,6.10842,3.94673,1.79442,5.23476,0
2.73335,6.11667,3.93859,1.78471,5.23476,0
2.73988,6.12489,3.93036,1.7749,5.23476,0
2.74648,6.13309,3.92204,1.765,5.23476,0
2.75315,6.14126,3.91362,1.755,5.23476,0
2.75989,6.14942,3.9051,1.74489,5.23476,0
2.7667,6.15755,3.89649,1.73468,5.23476,0
2.77358,6.16567,3.88778,1.72435,5.23476,0
2.78054,6.17377,3.87898,1.71391,5.23476,0
2.78758,6.18185,3.87008,1.70336,5.23476,0
2.7947,6.18993,3.86108,1.69268,5.23476,0
2.8019,6.19799,3.85198,1.68187,5.23476,0
2.80919,6.20604,3.84279,1.67094,5.23476,0
2.81657,6.21408,3.83349,1.65987,5.23476,0
2.82404,6.22212,3.8241,1.64866,5.23476,0
2.83161,6.23014,3.8146,1.63731,5.23476,0
2.83928,6.23817,3.80501,1.62581,5.23476,0
2.84705,6.24619,3.79531,1.61415,5.23476,0
2.85492,6.25422,3.78552,1.60234,5.23476,0
2.8629,6.26224,3.77562,1.59037,5.23476,0
2.871,6.27026,3.76561,1.57823,5.23476,0
2.87921,6.27829,3.75551,1.56591,5.23476,0
2.88754,6.28633,3.7453,1.55342,5.23476,0
2.89599,6.29437,3.73498,1.54074,5.23476,0
2.90457,6.30242,3.72457,1.52787,5.23476,0
2.91329,6.31048,3.71404,1.5148,5.23476,0
2.92214,6.31855,3.70341,1.50152,5.23476,0
2.93113,6.32663,3.69268,1.48803,5.23476,0
2.94026,6.33473,3.68183,1.47433,5.23476,0
2.94955,6.34285,3.67088,1.4604,5.23476,0
2.959,6.35098,3.65983,1.44623,5.23476,0
2.96861,6.35914,3.64866,1.43182,5.23476,0
2.97838,6.36731,3.63739,1.41715,5.23476,0
2.98833,6.3755,3.626,1.40223,5.23476,0
2.99846,6.38372,3.61451,1.38703,5.23476,0
3.00879,6.39197,3.6029,1.37155,5.23476,0
3.0193,6.40024,3.59119,1.35577,5.23476,0
3.03002,6.40854,3.57936,1.33969,5.23476,0
3.04096,6.41687,3.56742,1.32329,5.23476,0
3.05211,6.42524,3.55537,1.30656,5.23476,0
3.0635,6.43363,3.54321,1.28948,5.23476,0
3.07513,6.44206,3.53093,1.27204,5.23476,0
3.08701,6.45053,3.51854,1.25421,5.23476,0
3.09915,6.45904,3.50604,1.23599,5.23476,0
3.11158,6.46758,3.49342,1.21736,5.23476,0
3.1243,6.47617,3.48068,1.19828,5.23476,0
3.13732,6.4848,3.46783,1.17875,5.23476,0
3.15067,6.49347,3.45486,1.15872,5.23476,0
3.16436,6.50219,3.44178,1.13819,5.23476,0
3.17841,6.51095,3.42857,1.11711,5.23476,0
3.19285,6.51977,3.41525,1.09545,5.23476,0
3.2077,6.52863,3.40181,1.07318,5.23476,0
3.22298,6.53755,3.38826,1.05025,5.23476,0
3.23873,6.54652,3.37458,1.02663,5.23476,0
3.25499,6.55555,3.36078,1.00225,5.23476,0
3.27178,6.56463,3.34687,0.977058,5.23476,0
3.28916,6.57377,3.33283,0.950993,5.23476,0
3.30717,6.58297,3.31867,0.923975,5.23476,0
3.32587,6.59223,3.30439,0.895915,5.23476,0
3.34534,6.60155,3.28998,0.866711,5.23476,0
3.36566,6.61094,3.27545,0.836239,5.23476,0
3.38691,6.6204,3.2608,0.804354,5.23476,0
3.40923,6.62992,3.24603,0.770878,5.23476,0
3.43276,6.63951,3.23113,0.735592,5.23476,0
3.45767,6.64917,3.2161,0.698217,5.23476,0
3.48422,6.6589,3.20095,0.658396,5.23476,0
3.51272,6.66871,3.18567,0.615649,5.23476,0
3.54361,6.67859,3.17027,0.569318,5.23476,0
3.57753,6.68855,3.15474,0.518436,5.23476,0
3.61549,6.69859,3.13908,0.461497,5.23476,0
3.65922,6.7087,3.1233,0.395894,5.23476,0
3.7123,6.7189,3.10738,0.316269,5.23476,0
3.78513,6.72918,3.09134,0.207028,5.23476,0
3.92315,6.73955,3.07517,0,5.23476,0
