time,x_pos,y_pos,velocity,rotation,action
0,6.85,4.5,0,5.91091,0
0.0978004,6.84588,4.50863,0.195601,3.14159,0
0.138015,6.8417,4.51714,0.276029,3.14159,0
0.168672,6.83745,4.52553,0.337343,3.14159,0
0.194356,6.83314,4.5338,0.388713,3.14159,0
0.216851,6.82876,4.54195,0.433703,3.14159,0
0.237066,6.82432,4.54998,0.474132,3.14159,0
0.255551,6.81981,4.55789,0.511103,3.14159,0
0.272662,6.81524,4.56569,0.545324,3.14159,0
0.288647,6.8106,4.57336,0.577294,3.14159,0
0.30369,6.80589,4.58093,0.607381,3.14159,0
0.317928,6.80111,4.58838,0.635857,3.14159,0
0.331467,6.79626,4.59571,0.662934,3.14159,0
0.344397,6.79134,4.60293,0.688794,3.14159,0
0.356786,6.78634,4.61004,0.713573,3.14159,0
0.368693,6.78128,4.61704,0.737385,3.14159,0
0.380166,6.77614,4.62392,0.760333,3.14159,0
0.391249,6.77093,4.6307,0.782497,3.14159,0
0.401975,6.76564,4.63737,0.80395,3.14159,0
0.412377,6.76028,4.64393,0.824755,3.14159,0
0.422484,6.75484,4.65038,0.844968,3.14159,0
0.432318,6.74933,4.65672,0.864636,3.14159,0
0.441901,6.74374,4.66296,0.883803,3.14159,0
0.451254,6.73807,4.6691,0.902508,3.14159,0
0.460393,6.73232,4.67513,0.920785,3.14159,0
0.469333,6.72649,4.68105,0.938666,3.14159,0
0.478089,6.72058,4.68688,0.956178,3.14159,0
0.486676,6.71459,4.6926,0.973353,3.14159,0
0.495104,6.70852,4.69822,0.990208,3.14159,0
0.503384,6.70236,4.70374,1.00677,3.14159,0
0.511649,6.69612,4.70916,1,3.14159,0
0.519913,6.6898,4.71448,1,3.14159,0
0.528181,6.68339,4.7197,1,3.14159,0
0.536454,6.6769,4.72483,1,3.14159,0
0.544737,6.67032,4.72986,1,3.14159,0
0.553033,6.66365,4.73479,1,3.14159,0
0.561344,6.65689,4.73963,1,3.14159,0
0.569673,6.65005,4.74438,1,3.14159,0
0.578024,6.64311,4.74903,1,3.14159,0
0.586399,6.63609,4.75359,1,3.14159,0
0.594802,6.62897,4.75806,1,3.14159,0
0.603234,6.62177,4.76244,1,3.14159,0
0.611701,6.61446,4.76673,1,3.14159,0
0.620203,6.60707,4.77092,1,3.14159,0
0.628745,6.59958,4.77503,1,3.14159,0
0.637329,6.592,4.77906,1,3.14159,0
0.645956,6.58432,4.78299,1,3.14159,0
0.654631,6.57655,4.78684,1,3.14159,0
0.663357,6.56868,4.79061,1,3.14159,0
0.672135,6.56071,4.79429,1,3.14159,0
0.680968,6.55264,4.79789,1,3.14159,0
0.689859,6.54448,4.8014,1,3.14159,0
0.69881,6.53621,4.80483,1,3.14159,0
0.707824,6.52784,4.80819,1,3.14159,0
0.716903,6.51937,4.81146,1,3.14159,0
0.726049,6.5108,4.81465,1,3.14159,0
0.735265,6.50213,4.81776,1,3.14159,0
0.744554,6.49335,4.8208,1,3.14159,0
0.753916,6.48447,4.82375,1,3.14159,0
0.763355,6.47548,4.82664,1,3.14159,0
0.772872,6.46638,4.82944,1,3.14159,0
0.78247,6.45718,4.83217,1,3.14159,0
0.79215,6.44787,4.83483,1,3.14159,0
0.801915,6.43846,4.83741,1,3.14159,0
0.811767,6.42893,4.83992,1,3.14159,0
0.821707,6.41929,4.84236,1,3.14159,0
0.831737,6.40955,4.84473,1,3.14159,0
0.841859,6.39969,4.84703,1,3.14159,0
0.852076,6.38972,4.84926,1,3.14159,0
0.862388,6.37964,4.85143,1,3.14159,0
0.872797,6.36944,4.85352,1,3.14159,0
0.883305,6.35913,4.85555,1,3.14159,0
0.893913,6.3487,4.85751,1,3.14159,0
0.904624,6.33816,4.8594,1,3.14159,0
0.915438,6.32751,4.86124,1,3.14159,0
0.926357,6.31673,4.86301,1,3.14159,0
0.937383,6.30584,4.86471,1,3.14159,0
0.948518,6.29482,4.86635,1,3.14159,0
0.959761,6.28369,4.86794,1,3.14159,0
0.971115,6.27244,4.86946,1,3.14159,0
0.982582,6.26107,4.87092,1,3.14159,0
0.994162,6.24957,4.87233,1,3.14159,0
1.00586,6.23796,4.87367,1,3.14159,0
1.01767,6.22621,4.87496,1,3.14159,0
1.0296,6.21435,4.87619,1,3.14159,0
1.04164,6.20236,4.87737,1,3.14159,0
1.05381,6.19025,4.87849,1,3.14159,0
1.0661,6.178,4.87956,1,3.14159,0
1.07851,6.16564,4.88058,1,3.14159,0
1.09104,6.15314,4.88154,1,3.14159,0
1.1037,6.14051,4.88245,1,3.14159,0
1.11648,6.12776,4.88331,1,3.14159,0
1.12939,6.11488,4.88412,1,3.14159,0
1.14243,6.10186,4.88488,1,3.14159,0
1.1556,6.08872,4.8856,1,3.14159,0
1.16889,6.07544,4.88626,1,3.14159,0
1.18232,6.06202,4.88688,1,3.14159,0
1.19588,6.04848,4.88745,1,3.14159,0
1.20957,6.0348,4.88798,1,3.14159,0
1.22339,6.02098,4.88846,1,3.14159,0
1.23735,6.00703,4.8889,1,3.14159,0
1.25144,5.99294,4.8893,1,3.14159,0
1.26567,5.97872,4.88966,1,3.14159,0
1.28004,5.96435,4.88997,1,3.14159,0
1.29455,5.94985,4.89024,1,3.14159,0
1.30919,5.9352,4.89048,1,3.14159,0
1.32398,5.92042,4.89067,1,3.14159,0
1.33891,5.90549,4.89083,1,3.14159,0
1.35397,5.89043,4.89095,1,3.14159,0
1.36918,5.87522,4.89103,1,3.14159,0
1.38454,5.85986,4.89108,1,3.14159,0
1.40004,5.84437,4.89109,1,3.14159,0
1.41568,5.82872,4.89107,1,3.14159,0
1.43147,5.81293,4.89102,1,3.14159,0
1.4474,5.797,4.89093,1,3.14159,0
1.46349,5.78091,4.89082,1,3.14159,0
1.47972,5.76468,4.89067,1,3.14159,0
1.4961,5.7483,4.89049,1,3.14159,0
1.51263,5.73177,4.89028,1,3.14159,0
1.52931,5.7151,4.89005,1,3.14159,0
1.54614,5.69826,4.88978,1,3.14159,0
1.56313,5.68128,4.88949,1,3.14159,0
1.58027,5.66415,4.88918,1,3.14159,0
1.59756,5.64686,4.88884,1,3.14159,0
1.61501,5.62942,4.88847,1,3.14159,0
1.63261,5.61182,4.88808,1,3.14159,0
1.65036,5.59407,4.88767,1,3.14159,0
1.66828,5.57616,4.88724,1,3.14159,0
1.68635,5.55809,4.88678,1,3.14159,0
1.70458,5.53987,4.88631,1,3.14159,0
1.72297,5.52148,4.88581,1,3.14159,0
1.74152,5.50294,4.8853,1,3.14159,0
1.76023,5.48424,4.88477,1,3.14159,0
1.7791,5.46538,4.88422,1,3.14159,0
1.79813,5.44635,4.88365,1,3.14159,0
1.81733,5.42716,4.88307,1,3.14159,0
1.83669,5.40781,4.88247,1,3.14159,0
1.85621,5.3883,4.88187,1,3.14159,0
1.8759,5.36862,4.88124,1,3.14159,0
1.89575,5.34878,4.88061,1,3.14159,0
1.91577,5.32877,4.87996,1,3.14159,0
1.93596,5.30859,4.8793,1,3.14159,0
1.95632,5.28825,4.87864,1,3.14159,0
1.97684,5.26774,4.87796,1,3.14159,0
1.99753,5.24705,4.87728,1,3.14159,0
2.0184,5.2262,4.87658,1,3.14159,0
2.03943,5.20518,4.87589,1,3.14159,0
2.06064,5.18399,4.87518,1,3.14159,0
2.08201,5.16262,4.87447,1,3.14159,0
2.10356,5.14108,4.87376,1,3.14159,0
2.12529,5.11937,4.87304,1,3.14159,0
2.14718,5.09749,4.87232,1,3.14159,0
2.16926,5.07542,4.87159,1,3.14159,0
2.19151,5.05319,4.87087,1,3.14159,0
2.21393,5.03077,4.87015,1,3.14159,0
2.23653,5.00818,4.86942,1,3.14159,0
2.25932,4.98541,4.8687,1,3.14159,0
2.28227,4.96246,4.86798,1,3.14159,0
2.30541,4.93934,4.86726,1,3.14159,0
2.32873,4.91603,4.86655,1,3.14159,0
2.35223,4.89254,4.86584,1,3.14159,0
2.37591,4.86887,4.86513,1,3.14159,0
2.39978,4.84502,4.86444,1,3.14159,0
2.42382,4.82098,4.86374,1,3.14159,0
2.44805,4.79676,4.86306,1,3.14159,0
2.47247,4.77235,4.86238,1,3.14159,0
2.49707,4.74776,4.86172,1,3.14159,0
2.52186,4.72298,4.86106,1,3.14159,0
2.54683,4.69802,4.86042,1,3.14159,0
2.57199,4.67287,4.85978,1,3.14159,0
2.59734,4.64752,4.85916,1,3.14159,0
2.62288,4.62199,4.85855,1,3.14159,0
2.6486,4.59627,4.85796,1,3.14159,0
2.67452,4.57036,4.85738,1,3.14159,0
2.70063,4.54426,4.85682,1,3.14159,0
2.72693,4.51796,4.85627,1,3.14159,0
2.75343,4.49148,4.85574,1,3.14159,0
2.78011,4.46479,4.85523,1,3.14159,0
2.80699,4.43792,4.85474,1,3.14159,0
2.83407,4.41084,4.85426,1,3.14159,0
2.86134,4.38358,4.85381,1,3.14159,0
2.88881,4.35611,4.85338,1,3.14159,0
2.91648,4.32845,4.85297,1,3.14159,0
2.94434,4.30059,4.85258,1,3.14159,0
2.9724,4.27253,4.85222,1,3.14159,0
3.00067,4.24427,4.85188,1,3.14159,0
3.02913,4.21581,4.85157,1,3.14159,0
3.05779,4.18714,4.85128,1,3.14159,0
3.08666,4.15828,4.85102,1,3.14159,0
3.11573,4.12921,4.85079,1,3.14159,0
3.145,4.09994,4.85058,1,3.14159,0
3.17447,4.07047,4.85041,1,3.14159,0
3.20415,4.04079,4.85026,1,3.14159,0
3.23404,4.0109,4.85015,1,3.14159,0
3.26413,3.98081,4.85007,1,3.14159,0
3.29443,3.95051,4.85002,1,3.14159,0
3.32494,3.92,4.85,1,3.14159,0
3.3467,3.89823,4.85002,1,3.14159,0
3.36821,3.87673,4.85008,1,3.14159,0
3.38946,3.85548,4.85017,1,3.14159,0
3.41046,3.83448,4.8503,1,3.14159,0
3.43121,3.81373,4.85047,1,3.14159,0
3.45172,3.79322,4.85068,1,3.14159,0
3.47198,3.77296,4.85092,1,3.14159,0
3.49201,3.75293,4.8512,1,3.14159,0
3.51181,3.73314,4.85151,1,3.14159,0
3.53137,3.71358,4.85186,1,3.14159,0
3.55071,3.69424,4.85225,1,3.14159,0
3.56983,3.67513,4.85267,1,3.14159,0
3.58873,3.65623,4.85312,1,3.14159,0
3.60742,3.63755,4.85361,1,3.14159,0
3.6259,3.61908,4.85413,1,3.14159,0
3.64417,3.60081,4.85468,1,3.14159,0
3.66224,3.58275,4.85527,1,3.14159,0
3.68011,3.56489,4.85589,1,3.14159,0
3.69779,3.54723,4.85655,1,3.14159,0
3.71527,3.52976,4.85723,1,3.14159,0
3.73257,3.51247,4.85795,1,3.14159,0
3.74969,3.49537,4.8587,1,3.14159,0
3.76663,3.47845,4.85948,1,3.14159,0
3.78339,3.46171,4.86029,1,3.14159,0
3.79998,3.44514,4.86113,1,3.14159,0
3.8164,3.42874,4.86201,1,3.14159,0
3.83266,3.41251,4.86291,1,3.14159,0
3.84876,3.39644,4.86384,1,3.14159,0
3.8647,3.38053,4.8648,1,3.14159,0
3.88049,3.36477,4.86579,1,3.14159,0
3.89613,3.34916,4.86681,1,3.14159,0
3.91163,3.3337,4.86785,1,3.14159,0
3.92698,3.31838,4.86892,1,3.14159,0
3.9422,3.3032,4.87003,1,3.14159,0
3.95729,3.28816,4.87116,1,3.14159,0
3.97224,3.27325,4.87231,1,3.14159,0
3.98707,3.25846,4.87349,1,3.14159,0
4.00178,3.24381,4.8747,1,3.14159,0
4.01637,3.22927,4.87594,1,3.14159,0
4.03085,3.21485,4.8772,1,3.14159,0
4.04521,3.20054,4.87848,1,3.14159,0
4.05947,3.18634,4.87979,1,3.14159,0
4.07363,3.17224,4.88113,1,3.14159,0
4.08769,3.15825,4.88249,1,3.14159,0
4.10165,3.14436,4.88387,1,3.14159,0
4.11552,3.13056,4.88528,1,3.14159,0
4.12931,3.11685,4.88671,1,3.14159,0
4.14301,3.10322,4.88816,1,3.14159,0
4.15663,3.08968,4.88964,1,3.14159,0
4.17017,3.07622,4.89113,1,3.14159,0
4.18365,3.06284,4.89265,1,3.14159,0
4.19705,3.04952,4.8942,1,3.14159,0
4.21039,3.03628,4.89576,1,3.14159,0
4.22367,3.02309,4.89734,1,3.14159,0
4.23688,3.00997,4.89895,1,3.14159,0
4.25005,2.9969,4.90058,1,3.14159,0
4.26317,2.98389,4.90222,1,3.14159,0
4.27624,2.97093,4.90389,1,3.14159,0
4.28927,2.95801,4.90557,1,3.14159,0
4.30226,2.94513,4.90727,1,3.14159,0
4.31521,2.93229,4.909,1,3.14159,0
4.32814,2.91948,4.91074,1,3.14159,0
4.34103,2.90671,4.9125,1,3.14159,0
4.35391,2.89396,4.91427,1,3.14159,0
4.36676,2.88123,4.91607,1,3.14159,0
4.37959,2.86852,4.91788,1,3.14159,0
4.39242,2.85583,4.91971,1,3.14159,0
4.40523,2.84315,4.92155,1,3.14159,0
4.41804,2.83047,4.92342,1,3.14159,0
4.43085,2.8178,4.92529,1,3.14159,0
4.44366,2.80513,4.92718,1,3.14159,0
4.45648,2.79246,4.92909,1,3.14159,0
4.46931,2.77978,4.93102,1,3.14159,0
4.48215,2.76708,4.93295,1,3.14159,0
4.49501,2.75437,4.9349,1,3.14159,0
4.50788,2.74165,4.93687,1,3.14159,0
4.52079,2.7289,4.93885,1,3.14159,0
4.53372,2.71612,4.94084,1,3.14159,0
4.54668,2.70331,4.94284,1,3.14159,0
4.55968,2.69047,4.94486,1,3.14159,0
4.57272,2.67759,4.94689,1,3.14159,0
4.5858,2.66467,4.94893,1,3.14159,0
4.59892,2.65171,4.95098,1,3.14159,0
4.6121,2.6387,4.95305,1,3.14159,0
4.62533,2.62563,4.95512,1,3.14159,0
4.63862,2.61251,4.95721,1,3.14159,0
4.65197,2.59932,4.9593,1,3.14159,0
4.66538,2.58607,4.96141,1,3.14159,0
4.67886,2.57276,4.96353,1,3.14159,0
4.69242,2.55937,4.96565,1,3.14159,0
4.70605,2.54591,4.96779,1,3.14159,0
4.71976,2.53237,4.96993,1,3.14159,0
4.73355,2.51874,4.97208,1,3.14159,0
4.74743,2.50503,4.97424,1,3.14159,0
4.7614,2.49123,4.9764,1,3.14159,0
4.77547,2.47733,4.97858,1,3.14159,0
4.78963,2.46334,4.98076,1,3.14159,0
4.80389,2.44925,4.98295,1,3.14159,0
4.81826,2.43504,4.98514,1,3.14159,0
4.83274,2.42073,4.98734,1,3.14159,0
4.84733,2.40631,4.98955,1,3.14159,0
4.86204,2.39177,4.99176,1,3.14159,0
4.87687,2.37711,4.99397,1,3.14159,0
4.89182,2.36232,4.99619,1,3.14159,0
4.9069,2.34741,4.99842,1,3.14159,0
4.92211,2.33237,5.00065,1,3.14159,0
4.93745,2.31719,5.00288,1,3.14159,0
4.95293,2.30187,5.00512,1,3.14159,0
4.96856,2.2864,5.00736,1,3.14159,0
4.98433,2.27079,5.0096,1,3.14159,0
5.00025,2.25503,5.01184,1,3.14159,0
5.01632,2.23911,5.01409,1,3.14159,0
5.03255,2.22304,5.01634,1,3.14159,0
5.04894,2.20681,5.01859,1,3.14159,0
5.0655,2.1904,5.02084,1,3.14159,0
5.08222,2.17383,5.02309,1,3.14159,0
5.09912,2.15709,5.02535,1,3.14159,0
5.11619,2.14017,5.0276,1,3.14159,0
5.13344,2.12306,5.02985,1,3.14159,0
5.15087,2.10578,5.0321,1,3.14159,0
5.16849,2.0883,5.03436,1,3.14159,0
5.1863,2.07063,5.03661,1,3.14159,0
5.20431,2.05277,5.03885,1,3.14159,0
5.22285,2.03471,5.0411,0.962908,3.14159,0
5.24236,2.01644,5.04335,0.923891,3.14159,0
5.26296,1.99797,5.04559,0.882687,3.14159,0
5.28482,1.97928,5.04783,0.838965,3.14159,0
5.30816,1.96038,5.05007,0.792298,3.14159,0
5.33325,1.94126,5.0523,0.742121,3.14159,0
5.36048,1.92192,5.05453,0.687655,3.14159,0
5.39042,1.90236,5.05675,0.627774,3.14159,0
5.42394,1.88256,5.05897,0.560729,3.14159,0
5.46254,1.86253,5.06119,0.483537,3.14159,0
5.5092,1.84226,5.0634,0.390202,3.14159,0
5.57225,1.82176,5.06561,0.264104,3.14159,0
5.70431,1.801,5.06781,0,3.14159,0
