time,x_pos,y_pos,velocity,rotation,action
0,1.78,1.03499,0,3.14159,0
0.107672,1.78223,1.02659,0.161508,3.14159,0
0.152187,1.78472,1.01828,0.228281,3.14159,0
0.186317,1.78747,1.01006,0.279475,3.14159,0
0.215089,1.79046,1.00193,0.322633,3.14159,0
0.240456,1.7937,0.993891,0.360684,3.14159,0
0.263423,1.79719,0.985944,0.395134,3.14159,0
0.284589,1.80092,0.978086,0.426884,3.14159,0
0.304346,1.8049,0.970317,0.45652,3.14159,0
0.322968,1.80911,0.962638,0.484452,3.14159,0
0.340654,1.81357,0.955047,0.510981,3.14159,0
0.357554,1.81826,0.947544,0.536331,3.14159,0
0.373787,1.82319,0.940129,0.560681,3.14159,0
0.389446,1.82835,0.932801,0.584169,3.14159,0
0.404607,1.83375,0.925561,0.60691,3.14159,0
0.419332,1.83937,0.918406,0.628999,3.14159,0
0.433675,1.84522,0.911338,0.650513,3.14159,0
0.447678,1.8513,0.904356,0.671517,3.14159,0
0.46138,1.8576,0.897459,0.69207,3.14159,0
0.474812,1.86412,0.890647,0.712218,3.14159,0
0.488003,1.87087,0.883919,0.732004,3.14159,0
0.500975,1.87783,0.877276,0.751463,3.14159,0
0.513751,1.885,0.870716,0.770627,3.14159,0
0.526349,1.89239,0.86424,0.789524,3.14159,0
0.538785,1.9,0.857846,0.808177,3.14159,0
0.551073,1.90781,0.851535,0.826609,3.14159,0
0.563226,1.91583,0.845305,0.844839,3.14159,0
0.575256,1.92406,0.839158,0.862883,3.14159,0
0.587171,1.9325,0.833092,0.880757,3.14159,0
0.598983,1.94113,0.827106,0.898474,3.14159,0
0.610698,1.94997,0.821201,0.916046,3.14159,0
0.622323,1.959,0.815376,0.933484,3.14159,0
0.633865,1.96824,0.809631,0.950797,3.14159,0
0.64533,1.97767,0.803965,0.967995,3.14159,0
0.656723,1.98729,0.798377,0.985084,3.14159,0
0.668048,1.9971,0.792868,1.00207,3.14159,0
0.679311,2.0071,0.787437,1.01897,3.14159,0
0.690514,2.01729,0.782084,1.03577,3.14159,0
0.701661,2.02766,0.776807,1.05249,3.14159,0
0.712754,2.03822,0.771608,1.06913,3.14159,0
0.723798,2.04896,0.766485,1.0857,3.14159,0
0.734794,2.05988,0.761437,1.10219,3.14159,0
0.745744,2.07097,0.756466,1.11862,3.14159,0
0.756651,2.08225,0.751569,1.13498,3.14159,0
0.767517,2.09369,0.746747,1.15128,3.14159,0
0.778342,2.10531,0.741999,1.16751,3.14159,0
0.789129,2.1171,0.737326,1.18369,3.14159,0
0.799879,2.12906,0.732725,1.19982,3.14159,0
0.810592,2.14118,0.728198,1.21589,3.14159,0
0.821271,2.15347,0.723744,1.23191,3.14159,0
0.831915,2.16591,0.719361,1.24787,3.14159,0
0.842526,2.17852,0.715051,1.26379,3.14159,0
0.853105,2.19129,0.710812,1.27966,3.14159,0
0.863653,2.20422,0.706644,1.29548,3.14159,0
0.874169,2.2173,0.702547,1.31125,3.14159,0
0.884655,2.23053,0.69852,1.32698,3.14159,0
0.89511,2.24391,0.694563,1.34266,3.14159,0
0.905535,2.25745,0.690675,1.3583,3.14159,0
0.915932,2.27112,0.686856,1.3739,3.14159,0
0.926299,2.28495,0.683106,1.38945,3.14159,0
0.936637,2.29892,0.679424,1.40496,3.14159,0
0.946947,2.31302,0.675809,1.42042,3.14159,0
0.957228,2.32727,0.672262,1.43584,3.14159,0
0.96748,2.34166,0.668782,1.45122,3.14159,0
0.977705,2.35618,0.665369,1.46656,3.14159,0
0.987902,2.37083,0.662022,1.48185,3.14159,0
0.99807,2.38562,0.65874,1.49711,3.14159,0
1.00821,2.40054,0.655524,1.51232,3.14159,0
1.01846,2.41558,0.652373,1.5,3.14159,0
1.02878,2.43075,0.649286,1.5,3.14159,0
1.03917,2.44604,0.646263,1.5,3.14159,0
1.04964,2.46146,0.643304,1.5,3.14159,0
1.06017,2.47699,0.640409,1.5,3.14159,0
1.07078,2.49265,0.637576,1.5,3.14159,0
1.08145,2.50842,0.634805,1.5,3.14159,0
1.09219,2.5243,0.632097,1.5,3.14159,0
1.103,2.5403,0.629451,1.5,3.14159,0
1.11388,2.55641,0.626865,1.5,3.14159,0
1.12482,2.57262,0.624341,1.5,3.14159,0
1.13583,2.58895,0.621877,1.5,3.14159,0
1.14689,2.60537,0.619472,1.5,3.14159,0
1.15802,2.6219,0.617128,1.5,3.14159,0
1.16922,2.63854,0.614843,1.5,3.14159,0
1.18047,2.65527,0.612616,1.5,3.14159,0
1.19178,2.67209,0.610448,1.5,3.14159,0
1.20315,2.68902,0.608338,1.5,3.14159,0
1.21457,2.70603,0.606286,1.5,3.14159,0
1.22606,2.72314,0.60429,1.5,3.14159,0
1.23759,2.74033,0.602352,1.5,3.14159,0
1.24918,2.75762,0.600469,1.5,3.14159,0
1.26083,2.77499,0.598643,1.5,3.14159,0
1.27252,2.79244,0.596872,1.5,3.14159,0
1.28427,2.80998,0.595157,1.5,3.14159,0
1.29606,2.82759,0.593496,1.5,3.14159,0
1.30791,2.84528,0.591889,1.5,3.14159,0
1.3198,2.86305,0.590336,1.5,3.14159,0
1.33174,2.8809,0.588837,1.5,3.14159,0
1.34372,2.89881,0.587391,1.5,3.14159,0
1.35574,2.91679,0.585998,1.5,3.14159,0
1.36781,2.93485,0.584656,1.5,3.14159,0
1.37992,2.95297,0.583367,1.5,3.14159,0
1.39207,2.97115,0.582129,1.5,3.14159,0
1.40426,2.9894,0.580943,1.5,3.14159,0
1.41649,3.00771,0.579806,1.5,3.14159,0
1.42876,3.02607,0.57872,1.5,3.14159,0
1.44106,3.04449,0.577684,1.5,3.14159,0
1.45339,3.06297,0.576698,1.5,3.14159,0
1.46576,3.0815,0.57576,1.5,3.14159,0
1.47816,3.10008,0.574871,1.5,3.14159,0
1.4906,3.11871,0.57403,1.5,3.14159,0
1.50306,3.13739,0.573237,1.5,3.14159,0
1.51555,3.15611,0.572491,1.5,3.14159,0
1.52807,3.17488,0.571792,1.5,3.14159,0
1.54062,3.19369,0.57114,1.5,3.14159,0
1.55319,3.21253,0.570534,1.5,3.14159,0
1.56578,3.23142,0.569974,1.5,3.14159,0
1.5784,3.25034,0.569459,1.5,3.14159,0
1.59104,3.26929,0.568989,1.5,3.14159,0
1.6037,3.28828,0.568563,1.5,3.14159,0
1.61638,3.30729,0.568182,1.5,3.14159,0
1.62908,3.32634,0.567844,1.5,3.14159,0
1.64179,3.3454,0.56755,1.5,3.14159,0
1.65452,3.3645,0.567298,1.5,3.14159,0
1.66727,3.38361,0.567089,1.5,3.14159,0
1.68002,3.40275,0.566922,1.5,3.14159,0
1.69279,3.4219,0.566797,1.5,3.14159,0
1.70557,3.44107,0.566713,1.5,3.14159,0
1.71836,3.46026,0.566669,1.5,3.14159,0
1.73116,3.47946,0.566667,1.5,3.14159,0
1.74397,3.49867,0.566704,1.5,3.14159,0
1.75678,3.51788,0.566781,1.5,3.14159,0
1.7696,3.53711,0.566897,1.5,3.14159,0
1.78242,3.55634,0.567052,1.5,3.14159,0
1.79524,3.57557,0.567245,1.5,3.14159,0
1.80806,3.5948,0.567476,1.5,3.14159,0
1.82088,3.61403,0.567745,1.5,3.14159,0
1.8337,3.63326,0.568051,1.5,3.14159,0
1.84652,3.65249,0.568394,1.5,3.14159,0
1.85934,3.6717,0.568773,1.5,3.14159,0
1.87215,3.69091,0.569188,1.5,3.14159,0
1.88495,3.71011,0.569639,1.5,3.14159,0
1.89774,3.7293,0.570125,1.5,3.14159,0
1.91053,3.74847,0.570645,1.5,3.14159,0
1.92331,3.76763,0.5712,1.5,3.14159,0
1.93607,3.78677,0.571789,1.5,3.14159,0
1.94882,3.80588,0.572411,1.5,3.14159,0
1.96156,3.82498,0.573067,1.5,3.14159,0
1.97428,3.84405,0.573755,1.5,3.14159,0
1.98699,3.8631,0.574475,1.5,3.14159,0
1.99968,3.88212,0.575227,1.5,3.14159,0
2.01235,3.9011,0.576011,1.5,3.14159,0
2.025,3.92006,0.576826,1.5,3.14159,0
2.03763,3.93899,0.577671,1.5,3.14159,0
2.05023,3.95787,0.578547,1.5,3.14159,0
2.06281,3.97672,0.579452,1.5,3.14159,0
2.07537,3.99554,0.580387,1.5,3.14159,0
2.0879,4.01431,0.581351,1.5,3.14159,0
2.1004,4.03303,0.582343,1.5,3.14159,0
2.11288,4.05172,0.583364,1.5,3.14159,0
2.12532,4.07035,0.584413,1.5,3.14159,0
2.13773,4.08894,0.585488,1.5,3.14159,0
2.15011,4.10747,0.586591,1.5,3.14159,0
2.16246,4.12596,0.587721,1.5,3.14159,0
2.17477,4.14438,0.588876,1.5,3.14159,0
2.18704,4.16276,0.590058,1.5,3.14159,0
2.19927,4.18107,0.591264,1.5,3.14159,0
2.21147,4.19932,0.592496,1.5,3.14159,0
2.22363,4.21751,0.593752,1.5,3.14159,0
2.23574,4.23564,0.595032,1.5,3.14159,0
2.24781,4.2537,0.596336,1.5,3.14159,0
2.25984,4.27169,0.597664,1.5,3.14159,0
2.27182,4.28961,0.599014,1.5,3.14159,0
2.28376,4.30746,0.600386,1.5,3.14159,0
2.29564,4.32524,0.601781,1.5,3.14159,0
2.30748,4.34294,0.603198,1.5,3.14159,0
2.31927,4.36056,0.604635,1.5,3.14159,0
2.331,4.37811,0.606094,1.5,3.14159,0
2.34269,4.39557,0.607573,1.5,3.14159,0
2.35432,4.41295,0.609072,1.5,3.14159,0
2.36589,4.43024,0.610591,1.5,3.14159,0
2.37741,4.44744,0.612128,1.5,3.14159,0
2.38886,4.46456,0.613685,1.5,3.14159,0
2.40026,4.48159,0.61526,1.5,3.14159,0
2.4116,4.49852,0.616853,1.5,3.14159,0
2.42288,4.51536,0.618464,1.5,3.14159,0
2.43409,4.5321,0.620092,1.5,3.14159,0
2.44524,4.54874,0.621737,1.5,3.14159,0
2.45632,4.56528,0.623398,1.5,3.14159,0
2.46734,4.58172,0.625075,1.5,3.14159,0
2.47828,4.59805,0.626767,1.5,3.14159,0
2.48916,4.61428,0.628475,1.5,3.14159,0
2.49997,4.6304,0.630197,1.5,3.14159,0
2.5107,4.64641,0.631934,1.5,3.14159,0
2.52136,4.6623,0.633685,1.5,3.14159,0
2.53195,4.67808,0.635449,1.5,3.14159,0
2.54246,4.69375,0.637226,1.5,3.14159,0
2.5529,4.7093,0.639016,1.5,3.14159,0
2.56325,4.72473,0.640818,1.5,3.14159,0
2.57353,4.74003,0.642633,1.5,3.14159,0
2.58372,4.75521,0.644458,1.5,3.14159,0
2.59383,4.77027,0.646295,1.5,3.14159,0
2.60386,4.7852,0.648142,1.5,3.14159,0
2.61381,4.8,0.65,1.5,3.14159,0
2.62616,4.81837,0.652403,1.5,6.21337,0
2.63846,4.83665,0.654953,1.5,6.21337,0
2.65072,4.85484,0.657646,1.5,6.21337,0
2.66293,4.87294,0.660482,1.5,6.21337,0
2.6751,4.89094,0.663457,1.5,6.21337,0
2.68722,4.90886,0.666568,1.5,6.21337,0
2.6993,4.92669,0.669814,1.5,6.21337,0
2.71134,4.94443,0.673191,1.5,6.21337,0
2.72334,4.96208,0.676697,1.5,6.21337,0
2.7353,4.97964,0.68033,1.5,6.21337,0
2.74722,4.99712,0.684087,1.5,6.21337,0
2.7591,5.01452,0.687965,1.5,6.21337,0
2.77095,5.03183,0.691962,1.5,6.21337,0
2.78276,5.04907,0.696075,1.5,6.21337,0
2.79453,5.06621,0.700303,1.5,6.21337,0
2.80627,5.08329,0.704641,1.5,6.21337,0
2.81798,5.10028,0.709089,1.5,6.21337,0
2.82966,5.11719,0.713643,1.5,6.21337,0
2.8413,5.13402,0.7183,1.5,6.21337,0
2.85292,5.15078,0.723059,1.5,6.21337,0
2.8645,5.16746,0.727916,1.5,6.21337,0
2.87605,5.18407,0.73287,1.5,6.21337,0
2.88758,5.2006,0.737917,1.5,6.21337,0
2.89907,5.21706,0.743056,1.5,6.21337,0
2.91054,5.23345,0.748282,1.5,6.21337,0
2.92198,5.24977,0.753596,1.5,6.21337,0
2.9334,5.26602,0.758992,1.5,6.21337,0
2.94478,5.2822,0.764469,1.5,6.21337,0
2.95615,5.29831,0.770025,1.5,6.21337,0
2.96748,5.31436,0.775657,1.5,6.21337,0
2.97879,5.33033,0.781362,1.5,6.21337,0
2.99008,5.34625,0.787138,1.5,6.21337,0
3.00134,5.3621,0.792983,1.5,6.21337,0
3.01258,5.37788,0.798893,1.5,6.21337,0
3.02379,5.39361,0.804866,1.5,6.21337,0
3.03498,5.40927,0.810901,1.5,6.21337,0
3.04615,5.42487,0.816993,1.5,6.21337,0
3.05729,5.44041,0.823141,1.5,6.21337,0
3.06841,5.4559,0.829342,1.5,6.21337,0
3.07951,5.47132,0.835594,1.5,6.21337,0
3.09058,5.48669,0.841894,1.5,6.21337,0
3.10163,5.50201,0.84824,1.5,6.21337,0
3.11266,5.51727,0.854628,1.5,6.21337,0
3.12367,5.53247,0.861057,1.5,6.21337,0
3.13465,5.54762,0.867524,1.5,6.21337,0
3.14561,5.56273,0.874026,1.5,6.21337,0
3.15655,5.57778,0.880562,1.5,6.21337,0
3.16747,5.59277,0.887128,1.5,6.21337,0
3.17836,5.60773,0.893721,1.5,6.21337,0
3.18923,5.62263,0.90034,1.5,6.21337,0
3.20008,5.63748,0.906982,1.5,6.21337,0
3.2109,5.65229,0.913643,1.5,6.21337,0
3.22171,5.66706,0.920323,1.5,6.21337,0
3.23249,5.68178,0.927018,1.5,6.21337,0
3.24325,5.69645,0.933725,1.5,6.21337,0
3.25398,5.71109,0.940443,1.5,6.21337,0
3.26469,5.72568,0.947168,1.5,6.21337,0
3.27538,5.74023,0.953898,1.5,6.21337,0
3.28605,5.75475,0.960632,1.5,6.21337,0
3.29669,5.76922,0.967364,1.5,6.21337,0
3.30731,5.78366,0.974095,1.5,6.21337,0
3.3179,5.79805,0.98082,1.5,6.21337,0
3.32847,5.81242,0.987538,1.5,6.21337,0
3.33902,5.82675,0.994245,1.5,6.21337,0
3.34955,5.84104,1.00094,1.5,6.21337,0
3.36005,5.85531,1.00762,1.5,6.21337,0
3.37052,5.86954,1.01428,1.5,6.21337,0
3.38097,5.88374,1.02092,1.5,6.21337,0
3.3914,5.8979,1.02754,1.5,6.21337,0
3.4018,5.91204,1.03414,1.5,6.21337,0
3.41218,5.92616,1.0407,1.5,6.21337,0
3.42253,5.94024,1.04724,1.5,6.21337,0
3.43285,5.9543,1.05374,1.5,6.21337,0
3.44315,5.96833,1.06021,1.5,6.21337,0
3.45343,5.98234,1.06664,1.5,6.21337,0
3.46368,5.99633,1.07303,1.5,6.21337,0
3.47391,6.01029,1.07937,1.5,6.21337,0
3.4841,6.02423,1.08567,1.5,6.21337,0
3.49428,6.03815,1.09193,1.5,6.21337,0
3.50443,6.05205,1.09813,1.5,6.21337,0
3.51455,6.06594,1.10428,1.5,6.21337,0
3.52465,6.0798,1.11037,1.5,6.21337,0
3.53472,6.09365,1.11641,1.5,6.21337,0
3.54476,6.10748,1.12238,1.5,6.21337,0
3.55478,6.1213,1.12829,1.5,6.21337,0
3.56477,6.1351,1.13414,1.5,6.21337,0
3.57474,6.14889,1.13991,1.5,6.21337,0
3.58468,6.16267,1.14562,1.5,6.21337,0
3.5946,6.17644,1.15125,1.5,6.21337,0
3.60449,6.1902,1.15681,1.5,6.21337,0
3.61436,6.20394,1.16229,1.5,6.21337,0
3.6242,6.21768,1.16768,1.5,6.21337,0
3.63401,6.23141,1.173,1.5,6.21337,0
3.64381,6.24514,1.17823,1.5,6.21337,0
3.65357,6.25886,1.18336,1.5,6.21337,0
3.66332,6.27258,1.18841,1.5,6.21337,0
3.67304,6.28629,1.19337,1.5,6.21337,0
3.68273,6.3,1.19823,1.5,6.21337,0
3.69241,6.31371,1.20299,1.5,6.21337,0
3.70206,6.32742,1.20764,1.5,6.21337,0
3.71169,6.34112,1.2122,1.5,6.21337,0
3.7213,6.35483,1.21665,1.5,6.21337,0
3.73089,6.36855,1.22099,1.5,6.21337,0
3.74046,6.38226,1.22522,1.5,6.21337,0
3.75,6.39598,1.22933,1.5,6.21337,0
3.75953,6.4097,1.23333,1.5,6.21337,0
3.76904,6.42343,1.23721,1.5,6.21337,0
3.77854,6.43717,1.24097,1.5,6.21337,0
3.78806,6.45091,1.2446,1.48571,6.21337,0
3.79766,6.46467,1.24811,1.47131,6.21337,0
3.80734,6.47843,1.25149,1.4568,6.21337,0
3.8171,6.4922,1.25474,1.44215,6.21337,0
3.82695,6.50599,1.25785,1.42738,6.21337,0
3.8369,6.51979,1.26083,1.41246,6.21337,0
3.84693,6.5336,1.26366,1.39741,6.21337,0
3.85707,6.54742,1.26636,1.38221,6.21337,0
3.86731,6.56127,1.26891,1.36685,6.21337,0
3.87766,6.57512,1.27131,1.35132,6.21337,0
3.88812,6.589,1.27357,1.33563,6.21337,0
3.8987,6.60289,1.27567,1.31975,6.21337,0
3.90941,6.61681,1.27762,1.30369,6.21337,0
3.92026,6.63074,1.27941,1.28742,6.21337,0
3.93124,6.64469,1.28105,1.27095,6.21337,0
3.94237,6.65867,1.28252,1.25425,6.21337,0
3.95366,6.67267,1.28383,1.23732,6.21337,0
3.96511,6.68669,1.28497,1.22015,6.21337,0
3.97673,6.70074,1.28594,1.20271,6.21337,0
3.98854,6.71482,1.28673,1.185,6.21337,0
4.00054,6.72892,1.28736,1.16699,6.21337,0
4.01275,6.74305,1.2878,1.14868,6.21337,0
4.02518,6.7572,1.28807,1.13004,6.21337,0
4.03784,6.77139,1.28815,1.11105,6.21337,0
4.05075,6.78561,1.28805,1.09168,6.21337,0
4.06393,6.79986,1.28777,1.07192,6.21337,0
4.07738,6.81414,1.28729,1.05173,6.21337,0
4.09114,6.82846,1.28662,1.03109,6.21337,0
4.10523,6.84281,1.28576,1.00996,6.21337,0
4.11967,6.85719,1.2847,0.988306,6.21337,0
4.13448,6.87161,1.28343,0.966083,6.21337,0
4.14971,6.88607,1.28197,0.943249,6.21337,0
4.16537,6.90057,1.2803,0.919749,6.21337,0
4.18152,6.9151,1.27843,0.895528,6.21337,0
4.1982,6.92968,1.27634,0.870513,6.21337,0
4.21545,6.9443,1.27404,0.844631,6.21337,0
4.23335,6.95896,1.27153,0.817791,6.21337,0
4.25195,6.97366,1.2688,0.789887,6.21337,0
4.27134,6.98841,1.26585,0.760791,6.21337,0
4.29164,7.0032,1.26267,0.730355,6.21337,0
4.31294,7.01804,1.25927,0.698395,6.21337,0
4.33542,7.03292,1.25565,0.664678,6.21337,0
4.35926,7.04785,1.25179,0.628913,6.21337,0
4.38473,7.06283,1.2477,0.590716,6.21337,0
4.41216,7.07786,1.24337,0.549571,6.21337,0
4.44205,7.09294,1.23881,0.504737,6.21337,0
4.47513,7.10807,1.23401,0.455119,6.21337,0
4.5126,7.12326,1.22896,0.398911,6.21337,0
4.55669,7.1385,1.22367,0.332775,6.21337,0
4.61261,7.15379,1.21813,0.248888,6.21337,0
4.7033,7.16914,1.21234,0.112858,6.21337,0
4.77854,7.18454,1.2063,0,6.21337,0
