time,x_pos,y_pos,velocity,rotation,action
0,1.86245,4.45653,0,3.14159,0
0.0777083,1.86849,4.45655,0.155417,0,0
0.110071,1.87456,4.45661,0.220141,0,0
0.135022,1.88068,4.4567,0.270045,0,0
0.156159,1.88683,4.45683,0.312317,0,0
0.17487,1.89302,4.45699,0.34974,0,0
0.191868,1.89925,4.45719,0.383737,0,0
0.207577,1.90552,4.45743,0.415155,0,0
0.222269,1.91183,4.4577,0.444539,0,0
0.236136,1.91818,4.45801,0.472273,0,0
0.249317,1.92457,4.45834,0.498633,0,0
0.261915,1.931,4.45872,0.52383,0,0
0.274013,1.93747,4.45913,0.548026,0,0
0.285674,1.94399,4.45957,0.571347,0,0
0.296949,1.95054,4.46004,0.593899,0,0
0.307883,1.95713,4.46055,0.615767,0,0
0.318511,1.96377,4.46108,0.637023,0,0
0.328864,1.97045,4.46165,0.657729,0,0
0.338967,1.97717,4.46225,0.677934,0,0
0.348842,1.98393,4.46289,0.697684,0,0
0.358508,1.99073,4.46355,0.717016,0,0
0.367983,1.99758,4.46424,0.735966,0,0
0.377281,2.00447,4.46497,0.754563,0,0
0.386416,2.01141,4.46572,0.772832,0,0
0.395399,2.01839,4.4665,0.790799,0,0
0.404241,2.02541,4.46732,0.808482,0,0
0.412951,2.03248,4.46816,0.825902,0,0
0.421538,2.03959,4.46903,0.843076,0,0
0.430009,2.04675,4.46992,0.860018,0,0
0.438372,2.05395,4.47085,0.876743,0,0
0.446632,2.0612,4.4718,0.893265,0,0
0.454797,2.06849,4.47278,0.909594,0,0
0.462871,2.07583,4.47379,0.925741,0,0
0.470858,2.08322,4.47482,0.941716,0,0
0.478765,2.09065,4.47588,0.957529,0,0
0.486594,2.09813,4.47696,0.973189,0,0
0.494351,2.10566,4.47807,0.988701,0,0
0.502038,2.11324,4.47921,1.00408,0,0
0.509658,2.12086,4.48036,1.01932,0,0
0.517216,2.12853,4.48155,1.03443,0,0
0.524715,2.13625,4.48275,1.04943,0,0
0.532156,2.14402,4.48399,1.06431,0,0
0.539542,2.15183,4.48524,1.07908,0,0
0.546876,2.1597,4.48652,1.09375,0,0
0.554161,2.16761,4.48781,1.10832,0,0
0.561397,2.17558,4.48914,1.12279,0,0
0.568588,2.18359,4.49048,1.13718,0,0
0.575736,2.19165,4.49184,1.15147,0,0
0.582841,2.19977,4.49323,1.16568,0,0
0.589906,2.20793,4.49464,1.17981,0,0
0.596933,2.21615,4.49606,1.19387,0,0
0.603922,2.22442,4.49751,1.20784,0,0
0.610876,2.23274,4.49898,1.22175,0,0
0.617795,2.24111,4.50046,1.23559,0,0
0.624682,2.24953,4.50197,1.24936,0,0
0.631537,2.25801,4.50349,1.26307,0,0
0.638361,2.26653,4.50503,1.27672,0,0
0.645156,2.27512,4.50659,1.29031,0,0
0.651923,2.28375,4.50817,1.30385,0,0
0.658663,2.29244,4.50977,1.31733,0,0
0.665376,2.30118,4.51138,1.33075,0,0
0.672064,2.30997,4.51301,1.34413,0,0
0.678727,2.31882,4.51465,1.35745,0,0
0.685368,2.32773,4.51631,1.37074,0,0
0.691985,2.33669,4.51799,1.38397,0,0
0.69858,2.3457,4.51968,1.39716,0,0
0.705154,2.35477,4.52139,1.41031,0,0
0.711708,2.36389,4.52311,1.42342,0,0
0.718242,2.37307,4.52485,1.43648,0,0
0.724757,2.38231,4.5266,1.44951,0,0
0.731254,2.3916,4.52836,1.46251,0,0
0.737732,2.40095,4.53013,1.47546,0,0
0.744194,2.41036,4.53192,1.48839,0,0
0.750639,2.41983,4.53372,1.50128,0,0
0.757068,2.42935,4.53554,1.51414,0,0
0.763481,2.43893,4.53736,1.52696,0,0
0.76988,2.44857,4.5392,1.53976,0,0
0.776264,2.45826,4.54105,1.55253,0,0
0.782634,2.46802,4.54291,1.56527,0,0
0.788991,2.47783,4.54478,1.57798,0,0
0.795334,2.4877,4.54666,1.59067,0,0
0.801665,2.49764,4.54854,1.60333,0,0
0.807984,2.50763,4.55044,1.61597,0,0
0.814291,2.51768,4.55235,1.62858,0,0
0.820586,2.52779,4.55427,1.64117,0,0
0.82687,2.53796,4.55619,1.65374,0,0
0.833144,2.5482,4.55812,1.66629,0,0
0.839407,2.55849,4.56006,1.67881,0,0
0.845661,2.56885,4.56201,1.69132,0,0
0.851905,2.57927,4.56396,1.70381,0,0
0.858139,2.58975,4.56592,1.71628,0,0
0.864365,2.60029,4.56789,1.72873,0,0
0.870582,2.61089,4.56986,1.74116,0,0
0.87679,2.62156,4.57184,1.75358,0,0
0.882991,2.63229,4.57382,1.76598,0,0
0.889183,2.64308,4.57581,1.77837,0,0
0.895369,2.65394,4.57781,1.79074,0,0
0.901547,2.66486,4.5798,1.80309,0,0
0.907718,2.67584,4.5818,1.81544,0,0
0.913883,2.68689,4.58381,1.82777,0,0
0.920041,2.69801,4.58581,1.84008,0,0
0.926193,2.70918,4.58782,1.85239,0,0
0.932339,2.72043,4.58984,1.86468,0,0
0.938478,2.73174,4.59185,1.87696,0,0
0.944613,2.74311,4.59387,1.88923,0,0
0.950743,2.75455,4.59589,1.90149,0,0
0.956867,2.76606,4.59791,1.91373,0,0
0.962987,2.77763,4.59993,1.92597,0,0
0.969101,2.78927,4.60195,1.9382,0,0
0.975212,2.80098,4.60397,1.95042,0,0
0.981318,2.81276,4.60599,1.96264,0,0
0.98742,2.8246,4.60801,1.97484,0,0
0.993518,2.83651,4.61002,1.98704,0,0
0.999613,2.84849,4.61204,1.99923,0,0
1.0057,2.86053,4.61405,2.01141,0,0
1.01184,2.87265,4.61607,2,0,0
1.01802,2.88483,4.61808,2,0,0
1.02423,2.89709,4.62009,2,0,0
1.03047,2.90941,4.62209,2,0,0
1.03675,2.92181,4.62409,2,0,0
1.04306,2.93427,4.62609,2,0,0
1.0494,2.9468,4.62808,2,0,0
1.05578,2.95941,4.63007,2,0,0
1.0622,2.97208,4.63206,2,0,0
1.06865,2.98483,4.63404,2,0,0
1.07513,2.99765,4.63601,2,0,0
1.08165,3.01054,4.63798,2,0,0
1.08821,3.0235,4.63994,2,0,0
1.0948,3.03653,4.64189,2,0,0
1.10142,3.04964,4.64384,2,0,0
1.10808,3.06282,4.64578,2,0,0
1.11478,3.07607,4.64771,2,0,0
1.12151,3.08939,4.64964,2,0,0
1.12828,3.10279,4.65156,2,0,0
1.13508,3.11627,4.65346,2,0,0
1.14192,3.12981,4.65536,2,0,0
1.1488,3.14344,4.65725,2,0,0
1.15571,3.15713,4.65913,2,0,0
1.16266,3.1709,4.661,2,0,0
1.16965,3.18475,4.66286,2,0,0
1.17667,3.19867,4.66471,2,0,0
1.18373,3.21267,4.66655,2,0,0
1.19082,3.22675,4.66838,2,0,0
1.19796,3.2409,4.67019,2,0,0
1.20513,3.25512,4.672,2,0,0
1.21234,3.26943,4.67379,2,0,0
1.21958,3.28381,4.67556,2,0,0
1.22686,3.29827,4.67733,2,0,0
1.23418,3.3128,4.67908,2,0,0
1.24154,3.32742,4.68082,2,0,0
1.24894,3.34211,4.68254,2,0,0
1.25637,3.35688,4.68425,2,0,0
1.26385,3.37173,4.68594,2,0,0
1.27136,3.38666,4.68762,2,0,0
1.27891,3.40167,4.68928,2,0,0
1.2865,3.41676,4.69093,2,0,0
1.29413,3.43193,4.69256,2,0,0
1.30179,3.44717,4.69418,2,0,0
1.3095,3.4625,4.69577,2,0,0
1.31724,3.47791,4.69735,2,0,0
1.32503,3.4934,4.69892,2,0,0
1.33285,3.50897,4.70046,2,0,0
1.34072,3.52463,4.70199,2,0,0
1.34862,3.54036,4.70349,2,0,0
1.35656,3.55618,4.70498,2,0,0
1.36455,3.57208,4.70645,2,0,0
1.37257,3.58806,4.7079,2,0,0
1.38063,3.60413,4.70933,2,0,0
1.38874,3.62028,4.71074,2,0,0
1.39689,3.63651,4.71213,2,0,0
1.40507,3.65282,4.71349,2,0,0
1.4133,3.66922,4.71484,2,0,0
1.42157,3.68571,4.71616,2,0,0
1.42988,3.70227,4.71746,2,0,0
1.43823,3.71893,4.71874,2,0,0
1.44662,3.73566,4.72,2,0,0
1.45505,3.75249,4.72123,2,0,0
1.46353,3.7694,4.72244,2,0,0
1.47205,3.78639,4.72363,2,0,0
1.48061,3.80347,4.72479,2,0,0
1.48921,3.82064,4.72593,2,0,0
1.49786,3.83789,4.72704,2,0,0
1.50654,3.85524,4.72813,2,0,0
1.51527,3.87266,4.72919,2,0,0
1.52405,3.89018,4.73023,2,0,0
1.53286,3.90778,4.73124,2,0,0
1.54172,3.92548,4.73222,2,0,0
1.55063,3.94326,4.73317,2,0,0
1.55957,3.96113,4.7341,2,0,0
1.56856,3.97908,4.735,2,0,0
1.5776,3.99713,4.73588,2,0,0
1.58668,4.01527,4.73672,2,0,0
1.5958,4.03349,4.73753,2,0,0
1.60496,4.05181,4.73832,2,0,0
1.61418,4.07022,4.73908,2,0,0
1.62343,4.08871,4.73981,2,0,0
1.63273,4.1073,4.7405,2,0,0
1.64208,4.12598,4.74117,2,0,0
1.65147,4.14475,4.74181,2,0,0
1.6609,4.16361,4.74241,2,0,0
1.67038,4.18257,4.74299,2,0,0
1.67991,4.20161,4.74353,2,0,0
1.68948,4.22075,4.74404,2,0,0
1.6991,4.23998,4.74451,2,0,0
1.70877,4.25931,4.74496,2,0,0
1.71848,4.27872,4.74537,2,0,0
1.72824,4.29823,4.74575,2,0,0
1.73804,4.31784,4.74609,2,0,0
1.74789,4.33754,4.7464,2,0,0
1.75779,4.35733,4.74668,2,0,0
1.76773,4.37722,4.74692,2,0,0
1.77772,4.3972,4.74712,2,0,0
1.78776,4.41728,4.74729,2,0,0
1.79785,4.43745,4.74742,2,0,0
1.80799,4.45772,4.74752,2,0,0
1.81817,4.47809,4.74758,2,0,0
1.8284,4.49855,4.7476,2,0,0
1.83868,4.51911,4.74759,2,0,0
1.849,4.53976,4.74754,2,0,0
1.85938,4.56051,4.74745,2,0,0
1.86981,4.58136,4.74732,2,0,0
1.88028,4.60231,4.74715,2,0,0
1.8908,4.62335,4.74694,2,0,0
1.90137,4.6445,4.7467,2,0,0
1.912,4.66574,4.74641,2,0,0
1.92267,4.68708,4.74609,2,0,0
1.93339,4.70852,4.74572,2,0,0
1.94416,4.73005,4.74532,2,0,0
1.95498,4.75169,4.74487,2,0,0
1.96585,4.77343,4.74438,2,0,0
1.97677,4.79527,4.74385,2,0,0
1.98775,4.81721,4.74327,2,0,0
1.99877,4.83925,4.74266,2,0,0
2.00985,4.86139,4.742,2,0,0
2.02097,4.88363,4.7413,2,0,0
2.03215,4.90597,4.74055,2,0,0
2.04338,4.92841,4.73976,2,0,0
2.05466,4.95096,4.73893,2,0,0
2.06599,4.97361,4.73805,2,0,0
2.07738,4.99636,4.73713,2,0,0
2.08881,5.01921,4.73616,2,0,0
2.1003,5.04217,4.73514,2,0,0
2.11184,5.06523,4.73408,2,0,0
2.12344,5.08839,4.73298,2,0,0
2.13509,5.11166,4.73182,2,0,0
2.14679,5.13503,4.73062,2,0,0
2.15854,5.15851,4.72937,2,0,0
2.17035,5.18209,4.72808,2,0,0
2.18221,5.20577,4.72674,2,0,0
2.19413,5.22957,4.72534,2,0,0
2.2061,5.25346,4.7239,2,0,0
2.21813,5.27747,4.72241,2,0,0
2.2302,5.30157,4.72087,2,0,0
2.24234,5.32579,4.71928,2,0,0
2.25453,5.35011,4.71764,2,0,0
2.26677,5.37454,4.71595,2,0,0
2.27907,5.39908,4.71421,2,0,0
2.29142,5.42372,4.71242,2,0,0
2.30391,5.44847,4.71058,1.97502,0,0
2.31661,5.47333,4.70868,1.94961,0,0
2.32955,5.4983,4.70674,1.92375,0,0
2.34271,5.52337,4.70474,1.89742,0,0
2.35612,5.54856,4.70268,1.8706,0,0
2.36979,5.57385,4.70058,1.84326,0,0
2.38373,5.59925,4.69842,1.81539,0,0
2.39795,5.62477,4.6962,1.78695,0,0
2.41246,5.65039,4.69393,1.75793,0,0
2.42728,5.67612,4.69161,1.72828,0,0
2.44243,5.70196,4.68923,1.69798,0,0
2.45793,5.72792,4.6868,1.66699,0,0
2.47378,5.75398,4.68431,1.63528,0,0
2.49003,5.78016,4.68177,1.60279,0,0
2.50668,5.80645,4.67917,1.56948,0,0
2.52377,5.83285,4.67651,1.5353,0,0
2.54133,5.85936,4.67379,1.50018,0,0
2.55939,5.88598,4.67102,1.46406,0,0
2.57799,5.91272,4.66819,1.42686,0,0
2.59718,5.93957,4.6653,1.38849,0,0
2.617,5.96653,4.66235,1.34885,0,0
2.6375,5.99361,4.65935,1.30784,0,0
2.65877,6.0208,4.65628,1.2653,0,0
2.68088,6.0481,4.65316,1.22109,0,0
2.70392,6.07552,4.64998,1.17501,0,0
2.72801,6.10305,4.64673,1.12683,0,0
2.75328,6.1307,4.64343,1.07628,0,0
2.77993,6.15846,4.64006,1.02299,0,0
2.80816,6.18634,4.63664,0.966521,0,0
2.83829,6.21434,4.63315,0.906268,0,0
2.87071,6.24245,4.6296,0.841422,0,0
2.90601,6.27067,4.62598,0.770822,0,0
2.94507,6.29901,4.62231,0.692711,0,0
2.98933,6.32747,4.61857,0.604181,0,0
3.04156,6.35605,4.61477,0.499723,0,0
3.10845,6.38474,4.6109,0.36594,0,0
3.22508,6.41355,4.60698,0.132686,0,0
3.29142,6.44248,4.60298,0,0,0
