time,x_pos,y_pos,velocity,rotation,action
0,0,0,0,3.14159,0
0.0855393,0.00731697,-4.06296e-07,0.171079,0,0
0.122839,0.0150895,-1.61229e-06,0.245679,0,0
0.152676,0.0233099,-3.59862e-06,0.305351,0,0
0.178803,0.0319704,-6.34596e-06,0.357605,0,0
0.202641,0.0410632,-9.83494e-06,0.405281,0,0
0.224902,0.0505808,-1.40462e-05,0.449804,0,0
0.245999,0.0605153,-1.89605e-05,0.491997,0,0
0.266194,0.070859,-2.45583e-05,0.532387,0,0
0.285665,0.0816043,-3.08205e-05,0.571329,0,0
0.304538,0.0927433,-3.77275e-05,0.609076,0,0
0.322906,0.104268,-4.52601e-05,0.645812,0,0
0.34084,0.116172,-5.33989e-05,0.68168,0,0
0.358394,0.128446,-6.21246e-05,0.716787,0,0
0.37561,0.141083,-7.14178e-05,0.75122,0,0
0.392524,0.154075,-8.12592e-05,0.785048,0,0
0.409163,0.167415,-9.16294e-05,0.818327,0,0
0.425551,0.181094,-0.000102509,0.851103,0,0
0.441707,0.195105,-0.000113879,0.883415,0,0
0.457647,0.209441,-0.00012572,0.915295,0,0
0.473385,0.224093,-0.000138012,0.94677,0,0
0.488932,0.239054,-0.000150736,0.977864,0,0
0.504298,0.254317,-0.000163873,1.0086,0,0
0.519854,0.269872,-0.000177403,1,0,0
0.535695,0.285713,-0.000191307,1,0,0
0.551814,0.301833,-0.000205566,1,0,0
0.568204,0.318222,-0.000220161,1,0,0
0.584856,0.334874,-0.000235071,1,0,0
0.601763,0.351781,-0.000250278,1,0,0
0.618917,0.368935,-0.000265763,1,0,0
0.63631,0.386328,-0.000281505,1,0,0
0.653935,0.403953,-0.000297486,1,0,0
0.671784,0.421802,-0.000313686,1,0,0
0.689848,0.439867,-0.000330086,1,0,0
0.708122,0.45814,-0.000346667,1,0,0
0.726596,0.476614,-0.000363409,1,0,0
0.745264,0.495282,-0.000380293,1,0,0
0.764116,0.514134,-0.0003973,1,0,0
0.783146,0.533164,-0.000414409,1,0,0
0.802346,0.552364,-0.000431603,1,0,0
0.821708,0.571726,-0.00044886,1,0,0
0.841225,0.591243,-0.000466163,1,0,0
0.860888,0.610906,-0.000483492,1,0,0
0.88069,0.630708,-0.000500828,1,0,0
0.900624,0.650642,-0.00051815,1,0,0
0.920681,0.670699,-0.00053544,1,0,0
0.940853,0.690872,-0.000552679,1,0,0
0.961134,0.711152,-0.000569846,1,0,0
0.981516,0.731534,-0.000586924,1,0,0
1.00199,0.752008,-0.000603891,1,0,0
1.02255,0.772566,-0.00062073,1,0,0
1.04318,0.793203,-0.00063742,1,0,0
1.06389,0.813908,-0.000653943,1,0,0
1.08466,0.834675,-0.000670279,1,0,0
1.10548,0.855496,-0.000686408,1,0,0
1.12635,0.876364,-0.000702312,1,0,0
1.14725,0.89727,-0.00071797,1,0,0
1.16819,0.918207,-0.000733364,1,0,0
1.18915,0.939167,-0.000748475,1,0,0
1.21013,0.960143,-0.000763282,1,0,0
1.23111,0.981127,-0.000777767,1,0,0
1.25209,1.00211,-0.00079191,1,0,0
1.27307,1.02309,-0.000805692,1,0,0
1.29403,1.04405,-0.000819093,1,0,0
1.31496,1.06498,-0.000832094,1,0,0
1.33587,1.08589,-0.000844677,1,0,0
1.35674,1.10676,-0.00085682,1,0,0
1.37756,1.12758,-0.000868506,1,0,0
1.39833,1.14834,-0.000879715,1,0,0
1.41903,1.16905,-0.000890427,1,0,0
1.43967,1.18969,-0.000900623,1,0,0
1.46023,1.21024,-0.000910284,1,0,0
1.4807,1.23072,-0.00091939,1,0,0
1.50108,1.2511,-0.000927922,1,0,0
1.52136,1.27138,-0.000935861,1,0,0
1.54153,1.29155,-0.000943187,1,0,0
1.56159,1.31161,-0.000949881,1,0,0
1.58152,1.33154,-0.000955924,1,0,0
1.60132,1.35134,-0.000961296,1,0,0
1.62099,1.371,-0.000965978,1,0,0
1.6405,1.39052,-0.000969951,1,0,0
1.65986,1.40988,-0.000973195,1,0,0
1.67906,1.42908,-0.000975691,1,0,0
1.69809,1.44811,-0.000977419,1,0,0
1.71694,1.46696,-0.000978361,1,0,0
1.73561,1.48563,-0.000978496,1,0,0
1.75408,1.5041,-0.000977806,1,0,0
1.77236,1.52238,-0.000976271,1,0,0
1.79042,1.54044,-0.000973872,1,0,0
1.80827,1.55829,-0.00097059,1,0,0
1.82589,1.57591,-0.000966404,1,0,0
1.84329,1.5933,-0.000961296,1,0,0
1.86044,1.61046,-0.000955247,1,0,0
1.87734,1.62736,-0.000948237,1,0,0
1.894,1.64401,-0.000940246,1,0,0
1.91038,1.6604,-0.000931256,1,0,0
1.9265,1.67652,-0.000921247,1,0,0
1.94234,1.69236,-0.0009102,1,0,0
1.9579,1.70791,-0.000898095,1,0,0
1.97316,1.72318,-0.000884913,1,0,0
1.98812,1.73814,-0.000870634,1,0,0
2.00299,1.75279,-0.00085524,0.970256,0,0
2.018,1.76712,-0.000838711,0.940244,0,0
2.03314,1.78113,-0.000821028,0.909955,0,0
2.04843,1.79481,-0.00080217,0.879378,0,0
2.06387,1.80815,-0.00078212,0.8485,0,0
2.07946,1.82114,-0.000760857,0.817306,0,0
2.09523,1.83377,-0.000738362,0.785778,0,0
2.11117,1.84605,-0.000714617,0.753894,0,0
2.1273,1.85795,-0.0006896,0.721629,0,0
2.14293,1.86947,-0.000663294,0.75289,0,0
2.15803,1.88061,-0.000635679,0.722698,0,0
2.17321,1.89135,-0.000606736,0.692328,0,0
2.18849,1.9017,-0.000576444,0.661777,0,0
2.20386,1.91163,-0.000544785,0.631044,0,0
2.21932,1.92114,-0.00051174,0.600128,0,0
2.23487,1.93024,-0.000477288,0.569024,0,0
2.25051,1.93889,-0.000441412,0.537729,0,0
2.26626,1.94711,-0.000404091,0.506239,0,0
2.28211,1.95488,-0.000365305,0.474546,0,0
2.29806,1.9622,-0.000325037,0.442643,0,0
2.31412,1.96905,-0.000283266,0.410518,0,0
2.3303,1.97543,-0.000239973,0.378156,0,0
2.34661,1.98133,-0.000195138,0.345532,0,0
2.36307,1.98675,-0.000148743,0.312617,0,0
2.3797,1.99167,-0.000100768,0.279361,0,0
2.39653,1.99609,-5.11933e-05,0.24569,0,0
2.41364,2,0,0.211478,0,0
2.44431,2.00743,-3.59691e-06,0.272822,4.71239,0
2.46993,2.01507,-1.55503e-05,0.324055,4.71239,0
2.4926,2.02293,-3.76043e-05,0.369389,4.71239,0
2.51329,2.031,-7.1503e-05,0.410772,4.71239,0
2.53254,2.03928,-0.00011899,0.449277,4.71239,0
2.55069,2.04777,-0.00018181,0.485577,4.71239,0
2.56796,2.05645,-0.000261707,0.520122,4.71239,0
2.58452,2.06533,-0.000360425,0.553232,4.71239,0
2.60047,2.07441,-0.000479707,0.585137,4.71239,0
2.61591,2.08368,-0.000621298,0.616014,4.71239,0
2.6309,2.09314,-0.000786943,0.646001,4.71239,0
2.6455,2.10279,-0.000978384,0.675207,4.71239,0
2.65976,2.11262,-0.00119737,0.70372,4.71239,0
2.67371,2.12262,-0.00144563,0.731614,4.71239,0
2.68737,2.1328,-0.00172493,0.758947,4.71239,0
2.70079,2.14316,-0.002037,0.785771,4.71239,0
2.71396,2.15368,-0.00238359,0.812128,4.71239,0
2.72693,2.16437,-0.00276644,0.838056,4.71239,0
2.73969,2.17522,-0.00318729,0.863586,4.71239,0
2.75227,2.18623,-0.00364789,0.888743,4.71239,0
2.76468,2.1974,-0.00414999,0.913555,4.71239,0
2.77692,2.20872,-0.00469532,0.93804,4.71239,0
2.78901,2.22019,-0.00528564,0.962218,4.71239,0
2.80095,2.23181,-0.00592268,0.986105,4.71239,0
2.81276,2.24357,-0.00660819,1.00972,4.71239,0
2.82468,2.25547,-0.00734391,1,4.71239,0
2.83674,2.26751,-0.0081316,1,4.71239,0
2.84894,2.27968,-0.00897298,1,4.71239,0
2.86128,2.29198,-0.00986981,1,4.71239,0
2.87374,2.30441,-0.0108238,1,4.71239,0
2.88634,2.31696,-0.0118368,1,4.71239,0
2.89906,2.32964,-0.0129104,1,4.71239,0
2.9119,2.34243,-0.0140465,1,4.71239,0
2.92486,2.35533,-0.0152467,1,4.71239,0
2.93793,2.36835,-0.0165128,1,4.71239,0
2.95112,2.38147,-0.0178466,1,4.71239,0
2.96443,2.3947,-0.0192498,1,4.71239,0
2.97784,2.40803,-0.0207241,1,4.71239,0
2.99135,2.42145,-0.0222713,1,4.71239,0
3.00497,2.43498,-0.0238932,1,4.71239,0
3.01869,2.44859,-0.0255914,1,4.71239,0
3.0325,2.46229,-0.0273677,1,4.71239,0
3.04641,2.47608,-0.0292239,1,4.71239,0
3.06042,2.48994,-0.0311617,1,4.71239,0
3.07451,2.50389,-0.0331829,1,4.71239,0
3.08869,2.51791,-0.0352891,1,4.71239,0
3.10295,2.532,-0.0374822,1,4.71239,0
3.1173,2.54617,-0.0397639,1,4.71239,0
3.13172,2.5604,-0.0421359,1,4.71239,0
3.14622,2.57469,-0.0445999,1,4.71239,0
3.1608,2.58903,-0.0471578,1,4.71239,0
3.17545,2.60344,-0.0498112,1,4.71239,0
3.19016,2.6179,-0.052562,1,4.71239,0
3.20495,2.6324,-0.0554118,1,4.71239,0
3.2198,2.64696,-0.0583624,1,4.71239,0
3.23471,2.66155,-0.0614155,1,4.71239,0
3.24968,2.67619,-0.0645729,1,4.71239,0
3.26471,2.69086,-0.0678363,1,4.71239,0
3.2798,2.70557,-0.0712075,1,4.71239,0
3.29494,2.7203,-0.0746882,1,4.71239,0
3.31013,2.73506,-0.0782801,1,4.71239,0
3.32537,2.74985,-0.0819851,1,4.71239,0
3.34066,2.76465,-0.0858048,1,4.71239,0
3.356,2.77948,-0.089741,1,4.71239,0
3.37138,2.79431,-0.0937954,1,4.71239,0
3.3868,2.80916,-0.0979698,1,4.71239,0
3.40226,2.82401,-0.102266,1,4.71239,0
3.41776,2.83887,-0.106685,1,4.71239,0
3.4333,2.85373,-0.11123,1,4.71239,0
3.44888,2.86858,-0.115902,1,4.71239,0
3.46448,2.88343,-0.120702,1,4.71239,0
3.48012,2.89828,-0.125633,1,4.71239,0
3.49579,2.91311,-0.130696,1,4.71239,0
3.51149,2.92792,-0.135893,1,4.71239,0
3.52722,2.94271,-0.141226,1,4.71239,0
3.54297,2.95749,-0.146696,1,4.71239,0
3.55875,2.97223,-0.152305,1,4.71239,0
3.57455,2.98695,-0.158055,1,4.71239,0
3.59038,3.00164,-0.163948,1,4.71239,0
3.60622,3.01629,-0.169985,1,4.71239,0
3.62209,3.03091,-0.176169,1,4.71239,0
3.63798,3.04548,-0.1825,1,4.71239,0
3.65389,3.06001,-0.188981,1,4.71239,0
3.66982,3.07449,-0.195613,1,4.71239,0
3.68576,3.08892,-0.202398,1,4.71239,0
3.70173,3.1033,-0.209338,1,4.71239,0
3.71771,3.11761,-0.216435,1,4.71239,0
3.7337,3.13187,-0.22369,1,4.71239,0
3.74972,3.14606,-0.231105,1,4.71239,0
3.76575,3.16019,-0.238682,1,4.71239,0
3.78179,3.17424,-0.246423,1,4.71239,0
3.79785,3.18823,-0.254329,1,4.71239,0
3.81393,3.20213,-0.262402,1,4.71239,0
3.83003,3.21595,-0.270644,1,4.71239,0
3.84614,3.22969,-0.279056,1,4.71239,0
3.86227,3.24335,-0.287641,1,4.71239,0
3.87841,3.25691,-0.296399,1,4.71239,0
3.89458,3.27038,-0.305334,1,4.71239,0
3.91076,3.28376,-0.314446,1,4.71239,0
3.92696,3.29703,-0.323737,1,4.71239,0
3.94319,3.3102,-0.333209,1,4.71239,0
3.95943,3.32327,-0.342864,1,4.71239,0
3.9757,3.33622,-0.352704,1,4.71239,0
3.99199,3.34907,-0.36273,1,4.71239,0
4.00831,3.36179,-0.372944,1,4.71239,0
4.02466,3.3744,-0.383347,1,4.71239,0
4.04103,3.38689,-0.393942,1,4.71239,0
4.05744,3.39925,-0.40473,1,4.71239,0
4.07388,3.41148,-0.415714,1,4.71239,0
4.09035,3.42358,-0.426894,1,4.71239,0
4.10686,3.43554,-0.438272,1,4.71239,0
4.12341,3.44737,-0.44985,1,4.71239,0
4.14001,3.45905,-0.461631,1,4.71239,0
4.15664,3.47059,-0.473615,1,4.71239,0
4.17332,3.48198,-0.485805,1,4.71239,0
4.19006,3.49322,-0.498202,1,4.71239,0
4.20684,3.5043,-0.510807,1,4.71239,0
4.22368,3.51523,-0.523624,1,4.71239,0
4.24058,3.52599,-0.536653,1,4.71239,0
4.25755,3.53659,-0.549896,1,4.71239,0
4.27458,3.54703,-0.563355,1,4.71239,0
4.29167,3.55729,-0.577031,1,4.71239,0
4.30885,3.56738,-0.590927,1,4.71239,0
4.32609,3.57729,-0.605044,1,4.71239,0
4.34342,3.58701,-0.619384,1,4.71239,0
4.36084,3.59656,-0.633948,1,4.71239,0
4.37834,3.60592,-0.648739,1,4.71239,0
4.39593,3.61508,-0.663758,1,4.71239,0
4.41363,3.62406,-0.679007,1,4.71239,0
4.43142,3.63284,-0.694488,1,4.71239,0
4.44933,3.64141,-0.710202,1,4.71239,0
4.46734,3.64979,-0.72615,1,4.71239,0
4.48547,3.65795,-0.742336,1,4.71239,0
4.50372,3.66591,-0.75876,1,4.71239,0
4.52209,3.67365,-0.775425,1,4.71239,0
4.5406,3.68118,-0.792331,1,4.71239,0
4.55924,3.68849,-0.809482,1,4.71239,0
4.57803,3.69557,-0.826878,1,4.71239,0
4.59696,3.70243,-0.844521,1,4.71239,0
4.61604,3.70906,-0.862414,1,4.71239,0
4.63528,3.71546,-0.880557,1,4.71239,0
4.65468,3.72162,-0.898952,1,4.71239,0
4.67424,3.72754,-0.917602,1,4.71239,0
4.69398,3.73322,-0.936508,1,4.71239,0
4.7139,3.73866,-0.955672,1,4.71239,0
4.73401,3.74384,-0.975095,1,4.71239,0
4.7543,3.74878,-0.994779,1,4.71239,0
4.77479,3.75346,-1.01473,1,4.71239,0
4.79548,3.75788,-1.03494,1,4.71239,0
4.81638,3.76204,-1.05542,1,4.71239,0
4.83748,3.76593,-1.07616,1,4.71239,0
4.85881,3.76956,-1.09718,1,4.71239,0
4.88036,3.77291,-1.11847,1,4.71239,0
4.90214,3.77599,-1.14003,1,4.71239,0
4.92416,3.77879,-1.16187,1,4.71239,0
4.94642,3.78131,-1.18398,1,4.71239,0
4.96892,3.78355,-1.20638,1,4.71239,0
4.99168,3.78549,-1.22905,1,4.71239,0
5.01469,3.78715,-1.252,1,4.71239,0
5.03797,3.78852,-1.27524,1,4.71239,0
5.06152,3.78958,-1.29877,1,4.71239,0
5.08535,3.79035,-1.32258,1,4.71239,0
5.10945,3.79081,-1.34668,1,4.71239,0
5.13385,3.79096,-1.37107,1,4.71239,0
5.15395,3.79096,-1.39117,1,4.71239,0
5.17424,3.79096,-1.41147,1,4.71239,0
5.19473,3.79096,-1.43196,1,4.71239,0
5.2154,3.79096,-1.45263,1,4.71239,0
5.23625,3.79096,-1.47348,1,4.71239,0
5.25727,3.79096,-1.4945,1,4.71239,0
5.27846,3.79096,-1.51569,1,4.71239,0
5.2998,3.79096,-1.53703,1,4.71239,0
5.3213,3.79096,-1.55853,1,4.71239,0
5.34294,3.79096,-1.58017,1,4.71239,0
5.36473,3.79096,-1.60196,1,4.71239,0
5.38665,3.79096,-1.62388,1,4.71239,0
5.40869,3.79096,-1.64592,1,4.71239,0
5.43086,3.79096,-1.66809,1,4.71239,0
5.45314,3.79096,-1.69037,1,4.71239,0
5.47553,3.79096,-1.71276,1,4.71239,0
5.49803,3.79096,-1.73526,1,4.71239,0
5.52062,3.79096,-1.75785,1,4.71239,0
5.5433,3.79096,-1.78053,1,4.71239,0
5.56607,3.79096,-1.80329,1,4.71239,0
5.58891,3.79096,-1.82614,1,4.71239,0
5.61182,3.79096,-1.84905,1,4.71239,0
5.6348,3.79096,-1.87203,1,4.71239,0
5.65784,3.79096,-1.89507,1,4.71239,0
5.68093,3.79096,-1.91816,1,4.71239,0
5.70407,3.79096,-1.94129,1,4.71239,0
5.72724,3.79096,-1.96447,1,4.71239,0
5.75045,3.79096,-1.98768,1,4.71239,0
5.77369,3.79096,-2.01092,1,4.71239,0
5.79695,3.79096,-2.03418,1,4.71239,0
5.82023,3.79096,-2.05745,1,4.71239,0
5.84351,3.79096,-2.08074,1,4.71239,0
5.86679,3.79096,-2.10402,1,4.71239,0
5.89008,3.79096,-2.12731,1,4.71239,0
5.91335,3.79096,-2.15058,1,4.71239,0
5.9366,3.79096,-2.17383,1,4.71239,0
5.95984,3.79096,-2.19707,1,4.71239,0
5.98304,3.79096,-2.22027,1,4.71239,0
6.00621,3.79096,-2.24344,1,4.71239,0
6.02934,3.79096,-2.26657,1,4.71239,0
6.05242,3.79096,-2.28965,1,4.71239,0
6.07545,3.79096,-2.31268,1,4.71239,0
6.09841,3.79096,-2.33564,1,4.71239,0
6.12131,3.79096,-2.35854,1,4.71239,0
6.14414,3.79096,-2.38137,1,4.71239,0
6.16689,3.79096,-2.40412,1,4.71239,0
6.18955,3.79096,-2.42678,1,4.71239,0
6.21213,3.79096,-2.44936,1,4.71239,0
6.2346,3.79096,-2.47183,1,4.71239,0
6.25697,3.79096,-2.4942,1,4.71239,0
6.27923,3.79096,-2.51646,1,4.71239,0
6.30138,3.79096,-2.53861,1,4.71239,0
6.3234,3.79096,-2.56063,1,4.71239,0
6.34529,3.79096,-2.58252,1,4.71239,0
6.36705,3.79096,-2.60428,1,4.71239,0
6.38866,3.79096,-2.62589,1,4.71239,0
6.41013,3.79096,-2.64736,1,4.71239,0
6.43145,3.79096,-2.66867,1,4.71239,0
6.4526,3.79096,-2.68983,1,4.71239,0
6.47359,3.79096,-2.71082,1,4.71239,0
6.4944,3.79096,-2.73163,1,4.71239,0
6.51504,3.79096,-2.75227,1,4.71239,0
6.53549,3.79096,-2.77272,1,4.71239,0
6.55575,3.79096,-2.79298,1,4.71239,0
6.57581,3.79096,-2.81304,1,4.71239,0
6.59566,3.79096,-2.83289,1,4.71239,0
6.61531,3.79096,-2.85254,1,4.71239,0
6.63474,3.79096,-2.87197,1,4.71239,0
6.65395,3.79096,-2.89118,1,4.71239,0
6.67293,3.79096,-2.91015,1,4.71239,0
6.69167,3.79096,-2.9289,1,4.71239,0
6.71017,3.79096,-2.9474,1,4.71239,0
6.72842,3.79096,-2.96565,1,4.71239,0
6.74642,3.79096,-2.98365,1,4.71239,0
6.76416,3.79096,-3.00139,1,4.71239,0
6.78163,3.79096,-3.01886,1,4.71239,0
6.79883,3.79096,-3.03606,1,4.71239,0
6.81575,3.79096,-3.05298,1,4.71239,0
6.83239,3.79096,-3.06961,1,4.71239,0
6.84873,3.79096,-3.08596,1,4.71239,0
6.86477,3.79096,-3.102,1,4.71239,0
6.88051,3.79096,-3.11774,1,4.71239,0
6.89594,3.79096,-3.13317,1,4.71239,0
6.91106,3.79096,-3.14829,1,4.71239,0
6.92585,3.79096,-3.16308,1,4.71239,0
6.94031,3.79096,-3.17754,1,4.71239,0
6.95443,3.79096,-3.19166,1,4.71239,0
6.96822,3.79096,-3.20545,1,4.71239,0
6.98165,3.79096,-3.21888,1,4.71239,0
6.99473,3.79096,-3.23196,1,4.71239,0
7.00746,3.79096,-3.24468,1,4.71239,0
7.01981,3.79096,-3.25704,1,4.71239,0
7.03179,3.79096,-3.26902,1,4.71239,0
7.04339,3.79096,-3.28062,1,4.71239,0
7.05461,3.79096,-3.29184,1,4.71239,0
7.06543,3.79096,-3.30266,1,4.71239,0
7.07586,3.79096,-3.31309,1,4.71239,0
7.08588,3.79096,-3.32311,1,4.71239,0
7.09549,3.79096,-3.33272,1,4.71239,0
7.10468,3.79096,-3.34191,1,4.71239,0
7.11345,3.79096,-3.35068,1,4.71239,0
7.1218,3.79096,-3.35902,1,4.71239,0
7.1297,3.79096,-3.36693,1,4.71239,0
7.13716,3.79096,-3.37439,1,4.71239,0
7.14418,3.79096,-3.38141,1,4.71239,0
7.15074,3.79096,-3.38797,1,4.71239,0
7.15684,3.79096,-3.39407,1,4.71239,0
7.16247,3.79096,-3.3997,1,4.71239,0
7.16763,3.79096,-3.40486,1,4.71239,0
7.17231,3.79096,-3.40954,1,4.71239,0
7.17651,3.79096,-3.41374,1,4.71239,0
7.18021,3.79096,-3.41744,1,4.71239,0
7.18342,3.79096,-3.42065,1,4.71239,0
7.18612,3.79096,-3.42335,1,4.71239,0
7.18831,3.79096,-3.42553,1,4.71239,0
7.18998,3.79096,-3.42721,1,4.71239,0
7.19113,3.79096,-3.42836,1,4.71239,0
7.19175,3.79096,-3.42897,1,4.71239,0
7.19183,3.79096,-3.42906,1,4.71239,0
7.19229,3.79096,-3.4286,1,4.71239,0
7.1933,3.79096,-3.42759,1,4.71239,0
7.19486,3.79096,-3.42603,1,4.71239,0
7.19698,3.79096,-3.42391,1,4.71239,0
7.19967,3.79096,-3.42122,1,4.71239,0
7.20293,3.79096,-3.41795,1,4.71239,0
7.20678,3.79096,-3.41411,1,4.71239,0
7.21121,3.79096,-3.40968,1,4.71239,0
7.21623,3.79096,-3.40466,1,4.71239,0
7.22188,3.79096,-3.39904,0.988697,4.71239,0
7.22821,3.79096,-3.39282,0.976026,4.71239,0
7.23527,3.79096,-3.38598,0.961918,4.71239,0
7.24308,3.79096,-3.37853,0.946296,4.71239,0
7.25169,3.79096,-3.37045,0.92907,4.71239,0
7.26116,3.79096,-3.36175,0.910137,4.71239,0
7.27154,3.79096,-3.35241,0.889372,4.71239,0
7.28291,3.79096,-3.34242,0.86663,4.71239,0
7.29536,3.79096,-3.33179,0.841735,4.71239,0
7.30899,3.79096,-3.3205,0.814474,4.71239,0
7.32393,3.79096,-3.30856,0.784586,4.71239,0
7.34036,3.79096,-3.29594,0.75174,4.71239,0
7.35847,3.79096,-3.28265,0.715511,4.71239,0
7.37856,3.79096,-3.26868,0.675337,4.71239,0
7.401,3.79096,-3.25403,0.630445,4.71239,0
7.42637,3.79096,-3.23868,0.579716,4.71239,0
7.45551,3.79096,-3.22263,0.521428,4.71239,0
7.48991,3.79096,-3.20588,0.45264,4.71239,0
7.53249,3.79096,-3.18842,0.367471,4.71239,0
7.59141,3.79096,-3.17024,0.249635,4.71239,0
7.71623,3.79096,-3.15134,0,4.71239,0
