time,x_pos,y_pos,velocity,rotation,action
0,0,0,0,3.14159,0
0.0855393,0.00731697,-4.06299e-07,0.171079,0,0
0.122839,0.0150895,-1.6123e-06,0.245679,0,0
0.152676,0.0233099,-3.59864e-06,0.305351,0,0
0.178803,0.0319704,-6.346e-06,0.357605,0,0
0.202641,0.0410632,-9.835e-06,0.405281,0,0
0.224902,0.0505808,-1.40463e-05,0.449804,0,0
0.245999,0.0605153,-1.89606e-05,0.491997,0,0
0.266194,0.070859,-2.45585e-05,0.532387,0,0
0.285665,0.0816043,-3.08207e-05,0.571329,0,0
0.304538,0.0927433,-3.77277e-05,0.609076,0,0
0.322906,0.104268,-4.52604e-05,0.645812,0,0
0.34084,0.116172,-5.33992e-05,0.68168,0,0
0.358394,0.128446,-6.2125e-05,0.716787,0,0
0.37561,0.141083,-7.14183e-05,0.75122,0,0
0.392524,0.154075,-8.12597e-05,0.785048,0,0
0.409163,0.167415,-9.163e-05,0.818327,0,0
0.425551,0.181094,-0.00010251,0.851103,0,0
0.441707,0.195105,-0.00011388,0.883415,0,0
0.457647,0.209441,-0.00012572,0.915295,0,0
0.473385,0.224093,-0.000138013,0.94677,0,0
0.488932,0.239054,-0.000150737,0.977864,0,0
0.504298,0.254317,-0.000163874,1.0086,0,0
0.519492,0.269872,-0.000177404,1.03898,0,0
0.534522,0.285713,-0.000191309,1.06904,0,0
0.549393,0.301833,-0.000205568,1.09879,0,0
0.564112,0.318222,-0.000220162,1.12822,0,0
0.578683,0.334874,-0.000235073,1.15737,0,0
0.593111,0.351781,-0.00025028,1.18622,0,0
0.6074,0.368935,-0.000265764,1.2148,0,0
0.621553,0.386328,-0.000281507,1.24311,0,0
0.635573,0.403953,-0.000297488,1.27115,0,0
0.649463,0.421802,-0.000313688,1.29893,0,0
0.663225,0.439867,-0.000330088,1.32645,0,0
0.676861,0.45814,-0.000346669,1.35372,0,0
0.690373,0.476614,-0.000363411,1.38075,0,0
0.703763,0.495282,-0.000380295,1.40753,0,0
0.717032,0.514134,-0.000397302,1.43406,0,0
0.730181,0.533164,-0.000414412,1.46036,0,0
0.743212,0.552364,-0.000431605,1.48642,0,0
0.756126,0.571726,-0.000448863,1.51225,0,0
0.768923,0.591243,-0.000466166,1.53785,0,0
0.781605,0.610906,-0.000483495,1.56321,0,0
0.794172,0.630708,-0.000500831,1.58834,0,0
0.806624,0.650642,-0.000518153,1.61325,0,0
0.818962,0.670699,-0.000535443,1.63792,0,0
0.831187,0.690872,-0.000552682,1.66237,0,0
0.843299,0.711152,-0.00056985,1.6866,0,0
0.855298,0.731534,-0.000586927,1.7106,0,0
0.867184,0.752008,-0.000603895,1.73437,0,0
0.878958,0.772566,-0.000620734,1.75792,0,0
0.890619,0.793203,-0.000637424,1.78124,0,0
0.902169,0.813908,-0.000653947,1.80434,0,0
0.913606,0.834675,-0.000670283,1.82721,0,0
0.924931,0.855496,-0.000686412,1.84986,0,0
0.936143,0.876364,-0.000702316,1.87229,0,0
0.947244,0.89727,-0.000717975,1.89449,0,0
0.958231,0.918207,-0.000733369,1.91646,0,0
0.969107,0.939167,-0.000748479,1.93821,0,0
0.979869,0.960143,-0.000763287,1.95974,0,0
0.990519,0.981127,-0.000777772,1.98104,0,0
1.00105,1.00211,-0.000791915,2.00211,0,0
1.01159,1.02309,-0.000805697,1.98104,0,0
1.02222,1.04405,-0.000819098,1.95977,0,0
1.03297,1.06498,-0.000832099,1.93829,0,0
1.04381,1.08589,-0.000844682,1.91659,0,0
1.05476,1.10676,-0.000856826,1.89469,0,0
1.06582,1.12758,-0.000868512,1.87258,0,0
1.07697,1.14834,-0.00087972,1.85027,0,0
1.08823,1.16905,-0.000890432,1.82775,0,0
1.09959,1.18969,-0.000900628,1.80503,0,0
1.11106,1.21024,-0.000910289,1.78211,0,0
1.12262,1.23072,-0.000919396,1.75898,0,0
1.13428,1.2511,-0.000927928,1.73565,0,0
1.14605,1.27138,-0.000935867,1.71212,0,0
1.15791,1.29155,-0.000943193,1.68839,0,0
1.16988,1.31161,-0.000949887,1.66447,0,0
1.18194,1.33154,-0.00095593,1.64034,0,0
1.1941,1.35134,-0.000961302,1.61602,0,0
1.20636,1.371,-0.000965984,1.5915,0,0
1.21872,1.39052,-0.000969957,1.56678,0,0
1.23118,1.40988,-0.000973201,1.54187,0,0
1.24373,1.42908,-0.000975697,1.51676,0,0
1.25638,1.44811,-0.000977425,1.49145,0,0
1.26913,1.46696,-0.000978367,1.46596,0,0
1.28198,1.48563,-0.000978502,1.44026,0,0
1.29492,1.5041,-0.000977812,1.41438,0,0
1.30796,1.52238,-0.000976277,1.3883,0,0
1.3211,1.54044,-0.000973878,1.36203,0,0
1.33433,1.55829,-0.000970596,1.33556,0,0
1.34766,1.57591,-0.00096641,1.30891,0,0
1.36108,1.5933,-0.000961302,1.28205,0,0
1.3746,1.61046,-0.000955253,1.25501,0,0
1.38822,1.62736,-0.000948243,1.22777,0,0
1.40194,1.64401,-0.000940252,1.20034,0,0
1.41575,1.6604,-0.000931262,1.17272,0,0
1.42966,1.67652,-0.000921253,1.1449,0,0
1.44367,1.69236,-0.000910206,1.11689,0,0
1.45777,1.70791,-0.0008981,1.08868,0,0
1.47197,1.72318,-0.000884918,1.06027,0,0
1.48628,1.73814,-0.00087064,1.03167,0,0
1.50068,1.75279,-0.000855246,1.00286,0,0
1.51518,1.76712,-0.000838716,0.973856,0,0
1.52979,1.78113,-0.000821033,0.944645,0,0
1.5445,1.79481,-0.000802175,0.915228,0,0
1.55931,1.80815,-0.000782125,0.885601,0,0
1.57423,1.82114,-0.000760862,0.85576,0,0
1.58926,1.83377,-0.000738367,0.825702,0,0
1.6044,1.84605,-0.000714621,0.79542,0,0
1.61966,1.85795,-0.000689605,0.764908,0,0
1.63503,1.86947,-0.000663299,0.73416,0,0
1.65053,1.88061,-0.000635683,0.703165,0,0
1.66615,1.89135,-0.000606739,0.671912,0,0
1.68192,1.9017,-0.000576447,0.640388,0,0
1.69782,1.91163,-0.000544788,0.608576,0,0
1.71388,1.92114,-0.000511743,0.576455,0,0
1.73011,1.93024,-0.000477291,0.544,0,0
1.74652,1.93889,-0.000441414,0.511175,0,0
1.76314,1.94711,-0.000404093,0.477939,0,0
1.77999,1.95488,-0.000365308,0.444231,0,0
1.79712,1.9622,-0.000325039,0.409976,0,0
1.81458,1.96905,-0.000283267,0.375064,0,0
1.83244,1.97543,-0.000239974,0.339336,0,0
1.85083,1.98133,-0.000195139,0.302555,0,0
1.86994,1.98675,-0.000148744,0.264342,0,0
1.89009,1.99167,-0.000100768,0.224031,0,0
1.91196,1.99609,-5.11936e-05,0.180308,0,0
1.93717,2,0,0.129886,0,0
1.98013,2.00743,-3.59691e-06,0.215822,4.71239,0
2.01111,2.01507,-1.55503e-05,0.277775,4.71239,0
2.03699,2.02293,-3.76043e-05,0.329539,4.71239,0
2.05989,2.031,-7.1503e-05,0.375341,4.71239,0
2.08079,2.03928,-0.00011899,0.417129,4.71239,0
2.10022,2.04777,-0.00018181,0.455996,4.71239,0
2.11853,2.05645,-0.000261707,0.49262,4.71239,0
2.13595,2.06533,-0.000360425,0.527459,4.71239,0
2.15264,2.07441,-0.000479707,0.560832,4.71239,0
2.16871,2.08368,-0.000621298,0.592976,4.71239,0
2.18426,2.09314,-0.000786943,0.62407,4.71239,0
2.19935,2.10279,-0.000978384,0.654256,4.71239,0
2.21405,2.11262,-0.00119737,0.683644,4.71239,0
2.22839,2.12262,-0.00144563,0.712324,4.71239,0
2.24241,2.1328,-0.00172493,0.74037,4.71239,0
2.25614,2.14316,-0.002037,0.767843,4.71239,0
2.26962,2.15368,-0.00238359,0.794796,4.71239,0
2.28286,2.16437,-0.00276644,0.82127,4.71239,0
2.29588,2.17522,-0.00318729,0.847306,4.71239,0
2.30869,2.18623,-0.00364789,0.872933,4.71239,0
2.32131,2.1974,-0.00414999,0.898181,4.71239,0
2.33376,2.20872,-0.00469532,0.923074,4.71239,0
2.34604,2.22019,-0.00528564,0.947634,4.71239,0
2.35816,2.23181,-0.00592268,0.971879,4.71239,0
2.37014,2.24357,-0.00660819,0.995827,4.71239,0
2.38197,2.25547,-0.00734391,1.01949,4.71239,0
2.39367,2.26751,-0.0081316,1.04289,4.71239,0
2.40524,2.27968,-0.00897298,1.06603,4.71239,0
2.41669,2.29198,-0.00986981,1.08892,4.71239,0
2.42801,2.30441,-0.0108238,1.11158,4.71239,0
2.43923,2.31696,-0.0118368,1.13401,4.71239,0
2.45034,2.32964,-0.0129104,1.15623,4.71239,0
2.46134,2.34243,-0.0140465,1.17823,4.71239,0
2.47224,2.35533,-0.0152467,1.20003,4.71239,0
2.48304,2.36835,-0.0165128,1.22163,4.71239,0
2.49374,2.38147,-0.0178466,1.24303,4.71239,0
2.50435,2.3947,-0.0192498,1.26426,4.71239,0
2.51487,2.40803,-0.0207241,1.2853,4.71239,0
2.5253,2.42145,-0.0222713,1.30616,4.71239,0
2.53565,2.43498,-0.0238932,1.32685,4.71239,0
2.54591,2.44859,-0.0255914,1.34737,4.71239,0
2.55608,2.46229,-0.0273677,1.36772,4.71239,0
2.56618,2.47608,-0.0292239,1.38791,4.71239,0
2.5762,2.48994,-0.0311617,1.40795,4.71239,0
2.58613,2.50389,-0.0331829,1.42782,4.71239,0
2.596,2.51791,-0.0352891,1.44755,4.71239,0
2.60578,2.532,-0.0374822,1.46712,4.71239,0
2.6155,2.54617,-0.0397639,1.48655,4.71239,0
2.62514,2.56039,-0.0421359,1.50583,4.71239,0
2.63471,2.57469,-0.0445999,1.52497,4.71239,0
2.64421,2.58903,-0.0471578,1.54397,4.71239,0
2.65364,2.60344,-0.0498112,1.56282,4.71239,0
2.663,2.6179,-0.052562,1.58155,4.71239,0
2.67229,2.6324,-0.0554118,1.60013,4.71239,0
2.68152,2.64696,-0.0583624,1.61859,4.71239,0
2.69068,2.66155,-0.0614155,1.63691,4.71239,0
2.69977,2.67619,-0.0645729,1.6551,4.71239,0
2.70881,2.69086,-0.0678363,1.67316,4.71239,0
2.71777,2.70557,-0.0712075,1.6911,4.71239,0
2.72668,2.7203,-0.0746882,1.70891,4.71239,0
2.73552,2.73506,-0.0782801,1.7266,4.71239,0
2.74431,2.74985,-0.0819851,1.74417,4.71239,0
2.75303,2.76465,-0.0858048,1.76162,4.71239,0
2.76169,2.77948,-0.089741,1.77894,4.71239,0
2.7703,2.79431,-0.0937954,1.79615,4.71239,0
2.77884,2.80916,-0.0979698,1.81324,4.71239,0
2.78733,2.82401,-0.102266,1.83022,4.71239,0
2.79576,2.83887,-0.106685,1.84708,4.71239,0
2.80414,2.85373,-0.11123,1.86383,4.71239,0
2.81245,2.86858,-0.115902,1.88046,4.71239,0
2.82072,2.88343,-0.120702,1.89699,4.71239,0
2.82893,2.89828,-0.125633,1.91341,4.71239,0
2.83708,2.91311,-0.130696,1.92972,4.71239,0
2.84518,2.92792,-0.135893,1.94592,4.71239,0
2.85323,2.94271,-0.141226,1.96202,4.71239,0
2.86123,2.95749,-0.146696,1.97801,4.71239,0
2.86917,2.97223,-0.152305,1.9939,4.71239,0
2.87707,2.98695,-0.158055,2.00969,4.71239,0
2.88491,3.00164,-0.163948,2.02537,4.71239,0
2.8927,3.01629,-0.169985,2.04096,4.71239,0
2.90045,3.03091,-0.176169,2.05646,4.71239,0
2.90815,3.04548,-0.1825,2.07185,4.71239,0
2.9158,3.06001,-0.188981,2.08715,4.71239,0
2.9234,3.07449,-0.195613,2.10236,4.71239,0
2.93096,3.08892,-0.202398,2.11747,4.71239,0
2.93847,3.1033,-0.209338,2.1325,4.71239,0
2.94594,3.11761,-0.216435,2.14743,4.71239,0
2.95336,3.13187,-0.22369,2.16228,4.71239,0
2.96074,3.14606,-0.231105,2.17704,4.71239,0
2.96808,3.16019,-0.238682,2.19172,4.71239,0
2.97538,3.17424,-0.246423,2.20631,4.71239,0
2.98263,3.18823,-0.254329,2.22082,4.71239,0
2.98985,3.20213,-0.262402,2.23525,4.71239,0
2.99703,3.21595,-0.270644,2.24961,4.71239,0
3.00417,3.22969,-0.279056,2.26389,4.71239,0
3.01127,3.24335,-0.287641,2.27809,4.71239,0
3.01833,3.25691,-0.296399,2.29222,4.71239,0
3.02536,3.27038,-0.305334,2.30628,4.71239,0
3.03236,3.28376,-0.314446,2.32027,4.71239,0
3.03932,3.29703,-0.323737,2.3342,4.71239,0
3.04625,3.3102,-0.333209,2.34806,4.71239,0
3.05315,3.32327,-0.342864,2.36186,4.71239,0
3.06002,3.33622,-0.352704,2.37559,4.71239,0
3.06686,3.34907,-0.36273,2.38927,4.71239,0
3.07367,3.36179,-0.372944,2.40289,4.71239,0
3.08045,3.3744,-0.383347,2.41646,4.71239,0
3.08721,3.38689,-0.393942,2.42997,4.71239,0
3.09394,3.39925,-0.40473,2.44344,4.71239,0
3.10065,3.41148,-0.415714,2.45686,4.71239,0
3.10734,3.42358,-0.426894,2.47023,4.71239,0
3.114,3.43554,-0.438272,2.48356,4.71239,0
3.12065,3.44737,-0.44985,2.49686,4.71239,0
3.12728,3.45905,-0.461631,2.51011,4.71239,0
3.13393,3.47059,-0.473615,2.5,4.71239,0
3.14061,3.48198,-0.485805,2.5,4.71239,0
3.1473,3.49322,-0.498202,2.5,4.71239,0
3.15401,3.5043,-0.510807,2.5,4.71239,0
3.16075,3.51523,-0.523624,2.5,4.71239,0
3.16751,3.52599,-0.536653,2.5,4.71239,0
3.1743,3.53659,-0.549896,2.5,4.71239,0
3.18111,3.54703,-0.563355,2.5,4.71239,0
3.18795,3.55729,-0.577031,2.5,4.71239,0
3.19481,3.56738,-0.590927,2.5,4.71239,0
3.20171,3.57729,-0.605044,2.5,4.71239,0
3.20865,3.58701,-0.619384,2.5,4.71239,0
3.21561,3.59656,-0.633948,2.5,4.71239,0
3.22261,3.60592,-0.648739,2.5,4.71239,0
3.22965,3.61508,-0.663758,2.5,4.71239,0
3.23673,3.62406,-0.679007,2.5,4.71239,0
3.24385,3.63284,-0.694488,2.5,4.71239,0
3.25101,3.64141,-0.710202,2.5,4.71239,0
3.25821,3.64979,-0.72615,2.5,4.71239,0
3.26546,3.65795,-0.742336,2.5,4.71239,0
3.27276,3.66591,-0.75876,2.5,4.71239,0
3.28011,3.67365,-0.775425,2.5,4.71239,0
3.28752,3.68118,-0.792331,2.5,4.71239,0
3.29497,3.68849,-0.809482,2.5,4.71239,0
3.30249,3.69557,-0.826878,2.5,4.71239,0
3.31006,3.70243,-0.844521,2.5,4.71239,0
3.31769,3.70906,-0.862414,2.5,4.71239,0
3.32539,3.71546,-0.880557,2.5,4.71239,0
3.33315,3.72162,-0.898952,2.5,4.71239,0
3.34097,3.72754,-0.917602,2.5,4.71239,0
3.34887,3.73322,-0.936508,2.5,4.71239,0
3.35684,3.73866,-0.955672,2.5,4.71239,0
3.36488,3.74384,-0.975095,2.5,4.71239,0
3.373,3.74878,-0.994779,2.5,4.71239,0
3.38119,3.75346,-1.01473,2.5,4.71239,0
3.38947,3.75788,-1.03494,2.5,4.71239,0
3.39783,3.76204,-1.05542,2.5,4.71239,0
3.40627,3.76593,-1.07616,2.5,4.71239,0
3.4148,3.76956,-1.09718,2.5,4.71239,0
3.42342,3.77291,-1.11847,2.5,4.71239,0
3.43213,3.77599,-1.14003,2.5,4.71239,0
3.44094,3.77879,-1.16187,2.5,4.71239,0
3.44984,3.78131,-1.18398,2.5,4.71239,0
3.45884,3.78355,-1.20638,2.5,4.71239,0
3.46795,3.78549,-1.22905,2.5,4.71239,0
3.47715,3.78715,-1.252,2.5,4.71239,0
3.48647,3.78852,-1.27524,2.5,4.71239,0
3.49588,3.78958,-1.29877,2.5,4.71239,0
3.50541,3.79035,-1.32258,2.5,4.71239,0
3.51506,3.79081,-1.34668,2.5,4.71239,0
3.52481,3.79096,-1.37107,2.5,4.71239,0
3.53285,3.79096,-1.39117,2.5,4.71239,0
3.54097,3.79096,-1.41147,2.5,4.71239,0
3.54917,3.79096,-1.43196,2.5,4.71239,0
3.55744,3.79096,-1.45263,2.5,4.71239,0
3.56578,3.79096,-1.47348,2.5,4.71239,0
3.57418,3.79096,-1.4945,2.5,4.71239,0
3.58266,3.79096,-1.51569,2.5,4.71239,0
3.5912,3.79096,-1.53703,2.5,4.71239,0
3.5998,3.79096,-1.55853,2.5,4.71239,0
3.60845,3.79096,-1.58017,2.5,4.71239,0
3.61717,3.79096,-1.60196,2.5,4.71239,0
3.62593,3.79096,-1.62388,2.5,4.71239,0
3.63475,3.79096,-1.64592,2.5,4.71239,0
3.64362,3.79096,-1.66809,2.5,4.71239,0
3.65253,3.79096,-1.69037,2.5,4.71239,0
3.66149,3.79096,-1.71276,2.5,4.71239,0
3.67049,3.79096,-1.73526,2.5,4.71239,0
3.67952,3.79096,-1.75785,2.5,4.71239,0
3.6886,3.79096,-1.78053,2.5,4.71239,0
3.6977,3.79096,-1.80329,2.5,4.71239,0
3.70684,3.79096,-1.82614,2.5,4.71239,0
3.716,3.79096,-1.84905,2.5,4.71239,0
3.7252,3.79096,-1.87203,2.5,4.71239,0
3.73441,3.79096,-1.89507,2.5,4.71239,0
3.74365,3.79096,-1.91816,2.5,4.71239,0
3.7529,3.79096,-1.94129,2.5,4.71239,0
3.76217,3.79096,-1.96447,2.5,4.71239,0
3.77146,3.79096,-1.98768,2.5,4.71239,0
3.78075,3.79096,-2.01092,2.5,4.71239,0
3.79006,3.79096,-2.03418,2.5,4.71239,0
3.79937,3.79096,-2.05745,2.5,4.71239,0
3.80868,3.79096,-2.08074,2.5,4.71239,0
3.81799,3.79096,-2.10402,2.5,4.71239,0
3.82731,3.79096,-2.12731,2.5,4.71239,0
3.83665,3.79096,-2.15058,2.48131,4.71239,0
3.84606,3.79096,-2.17383,2.4625,4.71239,0
3.85553,3.79096,-2.19707,2.44355,4.71239,0
3.86506,3.79096,-2.22027,2.42449,4.71239,0
3.87466,3.79096,-2.24344,2.4053,4.71239,0
3.88431,3.79096,-2.26657,2.38599,4.71239,0
3.89402,3.79096,-2.28965,2.36656,4.71239,0
3.90379,3.79096,-2.31268,2.34702,4.71239,0
3.91362,3.79096,-2.33564,2.32737,4.71239,0
3.9235,3.79096,-2.35854,2.30761,4.71239,0
3.93344,3.79096,-2.38137,2.28774,4.71239,0
3.94343,3.79096,-2.40412,2.26776,4.71239,0
3.95346,3.79096,-2.42678,2.24769,4.71239,0
3.96355,3.79096,-2.44936,2.22751,4.71239,0
3.97369,3.79096,-2.47183,2.20724,4.71239,0
3.98387,3.79096,-2.4942,2.18687,4.71239,0
3.9941,3.79096,-2.51646,2.16642,4.71239,0
4.00437,3.79096,-2.53861,2.14588,4.71239,0
4.01468,3.79096,-2.56063,2.12526,4.71239,0
4.02503,3.79096,-2.58252,2.10455,4.71239,0
4.03542,3.79096,-2.60428,2.08377,4.71239,0
4.04584,3.79096,-2.62589,2.06292,4.71239,0
4.0563,3.79096,-2.64736,2.042,4.71239,0
4.0668,3.79096,-2.66867,2.02102,4.71239,0
4.07732,3.79096,-2.68983,1.99998,4.71239,0
4.08787,3.79096,-2.71082,1.97888,4.71239,0
4.09844,3.79096,-2.73163,1.95773,4.71239,0
4.10904,3.79096,-2.75227,1.93653,4.71239,0
4.11966,3.79096,-2.77272,1.91529,4.71239,0
4.13029,3.79096,-2.79298,1.89402,4.71239,0
4.14095,3.79096,-2.81304,1.87272,4.71239,0
4.15161,3.79096,-2.83289,1.85139,4.71239,0
4.16228,3.79096,-2.85254,1.83004,4.71239,0
4.17296,3.79096,-2.87197,1.80869,4.71239,0
4.18365,3.79096,-2.89118,1.78732,4.71239,0
4.19433,3.79096,-2.91015,1.76596,4.71239,0
4.20501,3.79096,-2.9289,1.7446,4.71239,0
4.21568,3.79096,-2.9474,1.72326,4.71239,0
4.22633,3.79096,-2.96565,1.70194,4.71239,0
4.23698,3.79096,-2.98365,1.68066,4.71239,0
4.2476,3.79096,-3.00139,1.65942,4.71239,0
4.25819,3.79096,-3.01886,1.63822,4.71239,0
4.26876,3.79096,-3.03606,1.61709,4.71239,0
4.27916,3.79096,-3.05298,1.63788,4.71239,0
4.28938,3.79096,-3.06961,1.61744,4.71239,0
4.29954,3.79096,-3.08596,1.59711,4.71239,0
4.30965,3.79096,-3.102,1.57689,4.71239,0
4.3197,3.79096,-3.11774,1.55679,4.71239,0
4.32968,3.79096,-3.13317,1.53684,4.71239,0
4.33957,3.79096,-3.14829,1.51705,4.71239,0
4.34939,3.79096,-3.16308,1.49742,4.71239,0
4.35911,3.79096,-3.17754,1.47798,4.71239,0
4.36873,3.79096,-3.19166,1.45874,4.71239,0
4.37824,3.79096,-3.20545,1.43972,4.71239,0
4.38763,3.79096,-3.21888,1.42093,4.71239,0
4.3969,3.79096,-3.23196,1.4024,4.71239,0
4.40603,3.79096,-3.24468,1.38414,4.71239,0
4.41501,3.79096,-3.25704,1.36617,4.71239,0
4.42384,3.79096,-3.26902,1.34852,4.71239,0
4.4325,3.79096,-3.28062,1.3312,4.71239,0
4.44098,3.79096,-3.29184,1.31424,4.71239,0
4.44926,3.79096,-3.30266,1.29767,4.71239,0
4.45735,3.79096,-3.31309,1.2815,4.71239,0
4.46522,3.79096,-3.32311,1.26576,4.71239,0
4.47286,3.79096,-3.33272,1.25048,4.71239,0
4.48025,3.79096,-3.34191,1.23569,4.71239,0
4.48739,3.79096,-3.35068,1.22141,4.71239,0
4.49426,3.79096,-3.35902,1.20768,4.71239,0
4.50084,3.79096,-3.36693,1.19451,4.71239,0
4.50712,3.79096,-3.37439,1.18195,4.71239,0
4.51309,3.79096,-3.38141,1.17002,4.71239,0
4.51872,3.79096,-3.38797,1.15875,4.71239,0
4.52401,3.79096,-3.39407,1.14817,4.71239,0
4.52894,3.79096,-3.3997,1.13832,4.71239,0
4.53349,3.79096,-3.40486,1.12921,4.71239,0
4.53765,3.79096,-3.40954,1.12089,4.71239,0
4.54141,3.79096,-3.41374,1.11338,4.71239,0
4.54474,3.79096,-3.41744,1.10671,4.71239,0
4.54765,3.79096,-3.42065,1.10091,4.71239,0
4.5501,3.79096,-3.42335,1.09599,4.71239,0
4.5521,3.79096,-3.42553,1.09199,4.71239,0
4.55364,3.79096,-3.42721,1.08892,4.71239,0
4.55469,3.79096,-3.42836,1.08681,4.71239,0
4.55526,3.79096,-3.42897,1.08567,4.71239,0
4.55534,3.79096,-3.42906,1.08552,4.71239,0
4.55576,3.79096,-3.4286,1.08467,4.71239,0
4.55669,3.79096,-3.42759,1.08281,4.71239,0
4.55814,3.79096,-3.42603,1.07992,4.71239,0
4.56011,3.79096,-3.42391,1.07599,4.71239,0
4.56261,3.79096,-3.42122,1.07097,4.71239,0
4.56567,3.79096,-3.41795,1.06486,4.71239,0
4.56929,3.79096,-3.41411,1.05762,4.71239,0
4.57349,3.79096,-3.40968,1.04921,4.71239,0
4.5783,3.79096,-3.40466,1.0396,4.71239,0
4.58373,3.79096,-3.39904,1.02873,4.71239,0
4.58982,3.79096,-3.39282,1.01656,4.71239,0
4.59659,3.79096,-3.38598,1.00302,4.71239,0
4.60408,3.79096,-3.37853,0.988046,4.71239,0
4.61232,3.79096,-3.37045,0.971561,4.71239,0
4.62136,3.79096,-3.36175,0.953472,4.71239,0
4.63126,3.79096,-3.35241,0.933672,4.71239,0
4.64208,3.79096,-3.34242,0.912034,4.71239,0
4.65389,3.79096,-3.33179,0.888412,4.71239,0
4.66678,3.79096,-3.3205,0.862628,4.71239,0
4.68086,3.79096,-3.30856,0.834467,4.71239,0
4.69627,3.79096,-3.29594,0.803662,4.71239,0
4.71316,3.79096,-3.28265,0.76988,4.71239,0
4.73175,3.79096,-3.26868,0.732693,4.71239,0
4.75233,3.79096,-3.25403,0.691535,4.71239,0
4.77529,3.79096,-3.23868,0.645624,4.71239,0
4.80118,3.79096,-3.22263,0.59384,4.71239,0
4.83087,3.79096,-3.20588,0.534455,4.71239,0
4.86583,3.79096,-3.18842,0.464536,4.71239,0
4.90897,3.79096,-3.17024,0.378256,4.71239,0
4.96823,3.79096,-3.15134,0,4.71239,0
